voltage1 (V),voltage2 (V)
1.6389250160222175,0.8745266884365368
1.6485503097628713,0.9114028138065737
1.655425519577624,0.9329034699545274
1.6675508896145512,0.9395286721396527
1.6636757713553272,0.9494039735099338
1.6500503555406356,0.9710296334727012
1.645925229651784,0.9862800988799708
1.660550675984985,0.9927802972502823
1.6901765800958282,1.0082807702871792
1.7229275795770134,1.036531632435072
1.704052003540147,1.0627824335459457
1.6600506607257304,1.0786579180272835
1.6555505233924375,1.091533310953093
1.6814263130588702,1.1116589251380964
1.6911766106143375,1.131659535508286
1.6944267097994934,1.1360346690267649
1.7044270149845882,1.1407848139896846
1.7185524460585346,1.1651605578783533
1.7158023621326335,1.2050367748039186
1.6948017212439344,1.2349126865443891
1.6624257332071901,1.2422879116183967
1.6504253669850764,1.2350376903592029
1.6580505996887114,1.241662892544328
1.6593006378368482,1.2672886745811334
1.6661758476516009,1.2872892849513229
1.673676076540422,1.2959145481734673
1.6725510422070986,1.3021647389141515
1.673176061281167,1.3159151585436568
1.6784262215033416,1.3400408948026978
1.6884265266884364,1.3574164250618
1.6916766258735922,1.3596664937284464
1.7023019501327556,1.3636666158024844
1.6856764427625355,1.3786670735801263
1.6765511642811366,1.3957925962096012
1.671301004058962,1.4104180425428021
1.6596756492812892,1.4261685232093266
1.6574255806146427,1.4476691793572802
1.6638007751701407,1.4652947172460096
1.6703009735404524,1.4870453810235909
1.6704259773552659,1.507170995208594
1.6685509201330608,1.5254215521713919
1.6594256416516617,1.5394219794305246
1.6456752220221567,1.5486722617267374
1.6448001953184606,1.565797784356212
1.6573005767998292,1.5859233985412151
1.6865514694662314,1.601173863948485
1.7074271065401168,1.623299539170507
1.6776761986144597,1.6503003631702629
1.6302997528000733,1.670800988799707
1.598673787652211,1.6791762443922238
1.6036739402447586,1.6813013092440567
1.6207994628742333,1.6891765495773186
1.6441751762443924,1.708052125614185
1.6478002868739892,1.7254276558732873
1.6456752220221567,1.7335529038361768
1.6463002410962249,1.7408031250953704
1.6372999664296397,1.7550535599841306
1.627299661244545,1.76792895290994
1.6347998901333658,1.7789292886135442
1.6540504776146734,1.786554521317179
1.668050904873806,1.7970548417615282
1.670800988799707,1.8104302499465927
1.6639257789849544,1.8291808221686454
1.6255496078371532,1.8434312570574054
1.609049104281747,1.8523065279091768
1.6091741080965607,1.8624318369090855
1.626424634540849,1.8658069399090549
1.6431751457258827,1.8716821192052981
1.6371749626148258,1.8723071382793663
1.6087990966521197,1.8754322336497085
1.6049239783928952,1.8838074892422254
1.6157993102816859,1.886807580797754
1.6411750846888638,1.8728071535386213
1.6615507065034945,1.8580567033906066
1.637924985503708,1.8564316537980285
1.6032989288003174,1.864931913205359
1.5985487838373975,1.8705570848719748
1.613799249244667,1.8578066957609791
1.6483003021332439,1.8341809747611926
1.6781762138737144,1.8219306009094518
1.6425501266518143,1.8171804559465317
1.5682978606524856,1.8100552385021516
1.5499222998748743,1.8005549485763115
1.567047822504349,1.7890545976134526
1.578923184911649,1.7753041779839474
1.5841733451338236,1.7598037049470505
1.587923459578234,1.7404281136509292
1.596673726615192,1.7185524460585346
1.6060490127262186,1.711177220984527
1.6140492568742943,1.7129272743919186
1.6206744590594195,1.7163023773918882
1.5937986388744774,1.713177282021546
1.5826732993560595,1.6956767479476302
1.5835483260597554,1.6686759239478743
1.594798669392987,1.6530504470961638
1.6056740012817774,1.639925046540727
1.60542399365215,1.6418001037629322
1.611424176763207,1.6377999816888944
1.6170493484298227,1.630799768059328
1.5931736198004092,1.616924344615009
1.5854233832819604,1.5976737571337016
1.6049239783928952,1.5806732383190405
1.6174243598742637,1.5669228186895352
1.5976737571337016,1.5614226508377331
1.5731730094302194,1.5496722922452468
1.5594225898007141,1.525796563615833
1.564172734763634,1.508421033356731
1.5819232764671776,1.5046709189123204
1.6086740928373058,1.5016708273567918
1.6270496536149175,1.4944206060975982
1.6136742454298534,1.4805451826532792
1.6079240699484236,1.4670447706534013
1.610549150059511,1.4672947782830286
1.6431751457258827,1.4702948698385572
1.6743010956144901,1.4682948088015382
1.630049745170446,1.4612945951719718
1.582923306985687,1.4590445265053256
1.568547868282113,1.4626696371349224
1.5900485244300668,1.457669484542375
1.6154242988372447,1.4445440839869381
1.6274246650593585,1.4377938779869992
1.6354249092074344,1.4467941526535844
1.6377999816888944,1.4625446333201089
1.6475502792443617,1.4645446943571276
1.6543004852443006,1.4476691793572802
1.6575505844294565,1.4294186223944823
1.6503003631702629,1.4269185460982088
1.6499253517258217,1.4361688283944214
1.6611756950590533,1.4391689199499496
1.6630507522812585,1.436668843653676
1.6590506302072208,1.431543687246315
1.6670508743552965,1.427543565172277
1.675176122318186,1.427543565172277
1.6720510269478437,1.418793298135319
1.655800531022065,1.4031678212836085
1.6504253669850764,1.4020427869502854
1.6661758476516009,1.4202933439130834
1.6643007904293954,1.4387939085055086
1.6594256416516617,1.440293954283273
1.6706759849848933,1.4264185308389539
1.6761761528366956,1.4137931455427717
1.680676290169988,1.4130431226538895
1.6809262977996156,1.4209183629871518
1.6845514084292124,1.425168492690817
1.6761761528366956,1.4260435193945127
1.6758011413922544,1.4284185918759726
1.6860514542069764,1.4400439466536454
1.6963017670216987,1.4465441450239571
1.7000518814661092,1.4442940763573107
1.693801690725425,1.4427940305795466
1.700926908169805,1.4391689199499496
1.7274277169103063,1.433043733024079
1.739803094576861,1.4286685995056
1.730677816095462,1.427168553727836
1.7525534836878567,1.420793359172338
1.7728041016876737,1.4219183935056612
1.7523034760582294,1.4332937406537065
1.7000518814661092,1.4360438245796074
1.679551255836665,1.4286685995056
1.6805512863551746,1.417168248542741
1.6941767021698662,1.410543046357616
1.703676992095706,1.4076679586169012
1.7153023468733786,1.410918057802057
1.7181774346140937,1.4185432905056918
1.7109272133548998,1.4239184545426802
1.705677053132725,1.427543565172277
1.706927091280862,1.4324187139500106
1.7026769615771966,1.4287936033204138
1.6983018280587177,1.4249184850611898
1.695426740318003,1.4284185918759726
1.698926847132786,1.438293893246254
1.7059270607623525,1.436668843653676
1.715552354503006,1.4260435193945127
1.716427381206702,1.4170432447279275
1.727052705465865,1.4137931455427717
1.7439282204657125,1.4151681875057223
1.7103021942808314,1.4162932218390454
1.665300820947905,1.403792840357677
1.6618007141331217,1.3821671803949096
1.6845514084292124,1.3730419019135105
1.7003018890957367,1.373291909543138
1.6898015686513872,1.3695417950987274
1.6789262367625966,1.3679167455061494
1.6810513016144293,1.370916837061678
1.6780512100589007,1.3725418866542558
1.6781762138737144,1.3664166997283853
1.6725510422070986,1.3560413830988496
1.6721760307626576,1.3480411389507738
1.6785512253181556,1.3457910702841274
1.6893015533921325,1.346791100802637
1.7136772972808008,1.3431659901730402
1.7225525681325726,1.3416659443952759
1.6800512710959197,1.3406659138767663
1.64105008087405,1.3396658833582569
1.6423001190221869,1.3401658986175116
1.6743010956144901,1.346666096987823
1.7045520187994019,1.3461660817285683
1.7156773583178198,1.3409159215063937
1.6871764885402998,1.3374158146916104
1.666425855281228,1.3287905514694662
1.6715510116885892,1.3196652729880674
1.6706759849848933,1.3231653798028504
1.6591756340220343,1.3256654560991241
1.6686759239478743,1.3257904599139378
1.7000518814661092,1.3241654103213598
1.7213025299844356,1.315040131839961
1.7065520798364209,1.316165166173284
1.667300881984924,1.3359157689138461
1.6773011871700187,1.336415784173101
1.6983018280587177,1.3186652424695577
1.686301461836604,1.3207903073213905
1.7034269844660788,1.3255404522843106
1.7019269386883145,1.322165349284341
1.6919266335032197,1.3080399182103946
1.7058020569475387,1.2946645100253305
1.7274277169103063,1.2947895138401442
1.7086771446882534,1.2991646473586231
1.6864264656514176,1.2914144108401746
1.691426618243965,1.2826641438032167
1.7019269386883145,1.2815391094698936
1.7031769768364513,1.2854142277291176
1.705677053132725,1.2867892696920682
1.703676992095706,1.2851642200994904
1.717552415540025,1.2807890865810114
1.7543035370952484,1.2749139072847682
1.723552598651082,1.2747889034699547
1.6876765037995543,1.3020397350993378
1.7086771446882534,1.334415723136082
1.7461782891323587,1.3410409253212072
1.744553239539781,1.3210403149510177
1.7181774346140937,1.298789635914182
1.7048020264290291,1.3054148380993071
1.6970517899105808,1.3346657307657093
1.691426618243965,1.3606665242469558
1.6879265114291817,1.36216657002472
1.6874264961699272,1.3572914212469864
1.6936766869106112,1.3565413983581043
1.70617706839198,1.3615415509506514
1.7090521561326946,1.359416486098819
1.7058020569475387,1.3562913907284768
1.7125522629474779,1.3652916653950622
1.7169273964659566,1.3700418103579821
1.710427198095645,1.3657916806543169
1.7154273506881925,1.3667917111728265
1.7444282357249672,1.387917355876339
1.730677816095462,1.4205433515427108
1.6816763206884975,1.432668721579638
1.669175939207129,1.4265435346537676
1.66717587817011,1.4167932370983
1.6931766716513565,1.4135431379131442
1.7360529801324502,1.4244184698019349
1.7356779686880093,1.4435440534684285
1.6800512710959197,1.4589195226905116
1.6505503707998903,1.4630446485793636
1.666050843836787,1.4562944425794244
1.7115522324289683,1.447419171727653
1.7344279305398724,1.4582945036164434
1.6690509353923155,1.4774200872829373
1.620924466689047,1.493670583208716
1.623299539170507,1.5140462050233467
1.651800408948027,1.5125461592455824
1.6900515762810144,1.51042109439375
1.6499253517258217,1.5161712698751793
1.6329248329111608,1.5192963652455214
1.6519254127628407,1.5264215826899015
1.6810513016144293,1.5392969756157109
1.662800744651631,1.5580475478377636
1.6267996459852903,1.5647977538377027
1.6369249549851985,1.5711729483932007
1.6449251991332745,1.5885484786523028
1.6404250617999818,1.5920485854670858
1.63154979094821,1.5805482345042268
1.6236745506149481,1.5736730246894741
1.631174779503769,1.5712979522080142
1.6425501266518143,1.5572975249488816
1.6556755272072514,1.5439221167638173
1.6553005157628102,1.5431720938749351
1.640675069429609,1.5469222083193457
1.6620507217627492,1.5399219946897795
1.684301400799585,1.5296716818750573
1.675676137577441,1.530546708578753
1.6409250770592365,1.5354218573564866
1.6341748710592976,1.5320467543565173
1.6488003173924985,1.5249215369121372
1.649050325022126,1.51992138431959
1.6466752525406658,1.5140462050233467
1.629299722281564,1.507546006653035
1.6120491958372754,1.5057959532456433
1.6127992187261575,1.4991707510605183
1.6231745353556932,1.490920499282815
1.6405500656147955,1.4882954191717277
1.6590506302072208,1.4890454420606098
1.6728010498367258,1.4835452742088078
1.6730510574663533,1.4740449842829677
1.6506753746147038,1.4555444196905423
1.644675191503647,1.441418988616596
1.6593006378368482,1.4389189123203223
1.6754261299478135,1.4389189123203223
1.6776761986144597,1.4302936490981781
1.6475502792443617,1.41916830957976
1.63154979094821,1.4114180730613117
1.6454252143925292,1.4082929776909696
1.6524254280220954,1.4137931455427717
1.6566755577257606,1.4234184392834255
1.6729260536515398,1.423168431653798
1.6788012329477828,1.4190433057649465
1.6710509964293345,1.412918118839076
1.6506753746147038,1.4000427259132666
1.6661758476516009,1.3797921079134496
1.7035519882808923,1.3741669362468338
1.710802209540086,1.38354222235786
1.6825513473921934,1.3871673329874568
1.6635507675405132,1.3864173100985748
1.6162993255409406,1.3817921689504684
1.607424054689169,1.379292092654195
1.6201744438001648,1.3747919553209023
1.6371749626148258,1.3692917874691002
1.6551755119479965,1.3635416119876704
1.6535504623554185,1.3719168675801874
1.6380499893185219,1.383167210913419
1.6294247260963775,1.384417249061556
1.6361749320963164,1.375291970580157
1.654550492873928,1.3659166844691304
1.6640507827997681,1.3702918179876094
1.6580505996887114,1.3850422681356243
1.6520504165776544,1.3945425580614643
1.6513003936887722,1.3914174626911222
1.6473002716147345,1.3877923520615254
1.6504253669850764,1.3896674092837307
1.6683009125034334,1.3905424359874266
1.6975518051698355,1.3860422986541339
1.7210525223548083,1.3802921231727043
1.6923016449476609,1.3819171727652821
1.6072990508743554,1.3901674245429854
1.5751730704672384,1.4067929319132053
1.5896735129856259,1.4049178746910003
1.6046739707632678,1.399417706839198
1.6159243140964994,1.4009177526169623
1.628424695577868,1.410918057802057
1.6416750999481187,1.4214183782464065
1.6655508285775322,1.423543443098239
1.6698009582811977,1.4204183477278969
1.6465502487258523,1.4144181646168401
1.6191744132816552,1.414043153172399
1.6020488906521806,1.4214183782464065
1.61254921109653,1.4294186223944823
1.613799249244667,1.4372938627277445
1.6095491195410014,1.4459191259498887
1.6136742454298534,1.4511692861720633
1.6196744285409101,1.4482941984313487
1.6160493179113133,1.449669240394299
1.6116741843928344,1.462044618060854
1.6207994628742333,1.4710448927274393
1.63867500839259,1.4754200262459183
1.6449251991332745,1.477920102542192
1.638299996948149,1.4809201940977201
1.6327998290963468,1.489795464949492
1.594798669392987,1.5041709036530655
1.5849233680227057,1.5050459303567616
1.6086740928373058,1.5019208349864193
1.6286747032074953,1.5077960142826623
1.6107991576891385,1.5195463728751488
1.5876734519486069,1.5282966399121067
1.5849233680227057,1.5206714072084722
1.588423474837489,1.5050459303567616
1.5890484939115572,1.4931705679494613
1.6017988830225531,1.5015458235419783
1.616549333170568,1.5245465254676962
1.611799188207648,1.5322967619861447
1.5954236884670552,1.5256715598010193
1.57692312387463,1.518296334727012
1.5719229712820828,1.5110461134678184
1.5795482039857174,1.5069209875789666
1.590798547318949,1.505545945616016
1.607049043244728,1.5074210028382216
1.612174199652089,1.5130461745048374
1.6171743522446362,1.5105460982085634
1.634299874874111,1.5021708426160465
1.6515504013183995,1.4974206976531268
1.6504253669850764,1.4981707205420087
1.6211744743186742,1.5021708426160465
1.6039239478743859,1.5049209265419476
1.6004238410596028,1.507170995208594
1.6131742301705987,1.5066709799493394
1.625174596392712,1.5041709036530655
1.6205494552446058,1.5047959227271341
1.631174779503769,1.5066709799493394
1.6573005767998292,1.5129211706900234
1.6332998443556017,1.5230464796899321
1.5999238258003479,1.5264215826899015
1.5807982421338542,1.5216714377269813
1.5774231391338847,1.5181713309121982
1.5866734214300973,1.5152962431714836
1.6017988830225531,1.5080460219122898
1.6136742454298534,1.5050459303567616
1.6349248939481797,1.503170873134556
1.6530504470961638,1.5050459303567616
1.6369249549851985,1.509171056245613
1.6254246040223395,1.504420911282693
1.6262996307260353,1.5006707968382824
1.6247995849482713,1.500420789208655
1.629299722281564,1.5030458693197426
1.6381749931333354,1.4995457625049593
1.6389250160222175,1.48429529709769
1.6614257026886807,1.4724199346903897
1.6508003784295175,1.4824202398754844
1.6086740928373058,1.4965456709494307
1.6002988372447888,1.4952956328012939
1.6294247260963775,1.4890454420606098
1.630424756614887,1.4890454420606098
1.6357999206518754,1.4866703695791499
1.657800592059084,1.476295052949614
1.684676412244026,1.4704198736533707
1.691051606799524,1.4702948698385572
1.6619257179479354,1.4749200109866634
1.6501753593554491,1.4694198431348613
1.6641757866145819,1.458794518875698
1.6623007293923764,1.4595445417645803
1.6415500961333047,1.471544907986694
1.6369249549851985,1.4784201178014467
1.6404250617999818,1.4707948850978119
1.6484253059480574,1.4555444196905423
1.6590506302072208,1.4400439466536454
1.6804262825403606,1.431918698690756
1.6945517136143071,1.4347937864314706
1.6770511795403913,1.4421690115054782
1.667300881984924,1.4389189123203223
1.6665508590960418,1.4280435804315317
1.6686759239478743,1.4199183324686422
1.6811763054292428,1.4291686147648548
1.698176824243904,1.4354188055055392
1.7204275032807397,1.4367938474684896
1.736552995391705,1.439043916135136
1.7193024689474166,1.4526693319498276
1.700176885280923,1.4647947019867549
1.7039269997253335,1.4610445875423446
1.7211775261696218,1.451669301431318
1.7278027283547472,1.4515442976165045
1.7186774498733484,1.4552944120609148
1.7114272286141545,1.4574194769127478
1.7125522629474779,1.450169255653554
1.7264276863917967,1.4351687978759118
1.7265526902066104,1.4297936338389234
1.7221775566881314,1.4391689199499496
1.730302804651021,1.445419110690634
1.741678151799066,1.4304186529129916
1.7680539567247535,1.4107930539872433
1.801554979094821,1.406917935728019
1.7905546433912167,1.4137931455427717
1.717552415540025,1.410918057802057
1.6976768089846492,1.3916674703207497
1.717177404095584,1.3810421460615863
1.7281777397991884,1.3894174016541032
1.7216775414288765,1.404542863246559
1.7299277932065797,1.4162932218390454
1.7554285714285716,1.41204309213538
1.7526784875026704,1.4095430158391065
1.7395530869472335,1.4137931455427717
1.740178106021302,1.407792962431715
1.7331778923917356,1.4016677755058444
1.7230525833918273,1.4061679128391371
1.7226775719473861,1.4169182409131138
1.7289277626880704,1.4170432447279275
1.7271777092806788,1.4030428174687948
1.7234275948362683,1.3931675160985137
1.7209275185399944,1.3922924893948179
1.7181774346140937,1.3969176305429243
1.753178502761925,1.384417249061556
1.7954297921689504,1.3686667683950315
1.7388030640583514,1.3934175237281412
1.6744260994293039,1.419293313394574
1.6821763359477524,1.4136681417279582
1.7453032624286628,1.3952925809503465
1.743803216650899,1.3869173253578295
1.7046770226142156,1.4001677297280801
1.675676137577441,1.412918118839076
1.6549255043183693,1.4244184698019349
1.6621757255775629,1.4269185460982088
1.6809262977996156,1.4226684163945433
1.6936766869106112,1.4170432447279275
1.6784262215033416,1.4121680959501939
1.6743010956144901,1.4092930082094792
1.6805512863551746,1.418043275246437
1.6878015076143682,1.4126681112094486
1.7000518814661092,1.3995427106540117
1.6936766869106112,1.3867923215430158
1.7085521408734399,1.382417188024537
1.699676870021668,1.381542161320841
1.686676473281045,1.3924174932096316
1.6561755424665061,1.3960426038392286
1.6150492873928037,1.3987926877651295
1.6176743675038912,1.4052928861354412
1.6666758629108556,1.4072929471724602
1.6994268623920408,1.4100430310983612
1.6865514694662314,1.419668324839015
1.6486753135776848,1.4280435804315317
1.614174260689108,1.4322937101351971
1.6067990356151007,1.4277935728019044
1.6659258400219734,1.4210433668019655
1.7183024384289072,1.423168431653798
1.6619257179479354,1.4304186529129916
1.5732980132450332,1.4204183477278969
1.5592975859859004,1.410918057802057
1.5865484176152838,1.3965426190984833
1.6034239326151312,1.381542161320841
1.640300057985168,1.3779170506912441
1.6896765648365732,1.384417249061556
1.6620507217627492,1.3896674092837307
1.6049239783928952,1.381667165135655
1.61254921109653,1.3766670125431073
1.6174243598742637,1.3861673024689474
1.6265496383556628,1.392667500839259
1.6811763054292428,1.3829172032837918
1.6614257026886807,1.389917416913358
1.5782981658375803,1.4202933439130834
1.5632977080599384,1.430668660542619
1.6391750236518448,1.4084179815057831
1.7113022247993408,1.4061679128391371
1.6581756035035249,1.4352938016907255
1.544422132023072,1.4574194769127478
1.5050459303567616,1.4557944273201697
1.5282966399121067,1.4449190954313793
1.5525473799859615,1.4486692098757896
1.5755480819116796,1.4609195837275306
1.5861734061708426,1.4562944425794244
1.5835483260597554,1.450919278542436
1.5894235053559984,1.451794305246132
1.58642341380047,1.454169377727592
1.5574225287636951,1.4550444044312876
1.5790481887264625,1.4502942594683677
1.630049745170446,1.4621696218756677
1.587298440504166,1.475920041505173
1.5524223761711478,1.4740449842829677
1.5429220862453077,1.480295175023652
1.554797448652608,1.4884204229865414
1.588048463393048,1.4862953581347087
1.6254246040223395,1.478295113986633
1.6277996765037996,1.4915455183568835
1.5875484481337934,1.5079210180974763
1.6046739707632678,1.5096710715048678
1.5994238105410932,1.5114211249122593
1.5439221167638173,1.5144212164677877
1.5540474257637258,1.5117961363567003
1.5771731315042574,1.5240465102084415
1.5411720328379164,1.5245465254676962
1.5482972502822963,1.5239215063936278
1.53892196417127,1.5342968230231637
1.5092960600604266,1.5382969450972015
1.4931705679494613,1.52229645680105
1.500045777764214,1.5192963652455214
1.5130461745048374,1.5362968840601827
1.5292966704306161,1.5451721549119541
1.5391719718008974,1.5359218726157415
1.5432970976897489,1.531671742912076
1.5417970519119846,1.5516723532822658
1.5506723227637564,1.5691728873561817
1.564297738578448,1.5741730399487288
1.566172795800653,1.5697979064302499
1.5742980437635425,1.5655477767265848
1.6019238868373669,1.5702979216895046
1.5390469679860834,1.5757980895413068
1.4609195837275306,1.5734230170598467
1.4754200262459183,1.5700479140598773
1.5174213080233163,1.5679228492080448
1.5411720328379164,1.5595475936155279
1.5145462202826014,1.5511723380230111
1.5282966399121067,1.5481722464674825
1.5030458693197426,1.556797509689627
1.473544969023713,1.5556724753563036
1.4705448774681846,1.547547227393414
1.4986707358012636,1.5470472121341592
1.5262965788750877,1.550422315134129
1.5264215826899015,1.5397969908749656
1.520296395764031,1.5312967314676351
1.5344218268379772,1.5280466322824793
1.5772981353190711,1.5350468459120459
1.5797982116153446,1.5452971587267679
1.5626726889858698,1.5429220862453077
1.5901735282448806,1.544047120578631
1.5854233832819604,1.5456721701712088
1.597173741874447,1.5429220862453077
1.6411750846888638,1.5381719412823878
1.6670508743552965,1.5382969450972015
1.6568005615405743,1.5426720786156805
1.6466752525406658,1.540922025208289
1.6423001190221869,1.536921903134251
1.6596756492812892,1.5304217047639395
1.6986768395031586,1.5296716818750573
1.7528034913174841,1.5249215369121372
1.7596787011322368,1.5220464491714225
1.7493033845027008,1.5134211859492783
1.7266776940214241,1.5125461592455824
1.7435532090212715,1.5161712698751793
1.743803216650899,1.5109211096530044
1.7666789147618032,1.499670766319773
1.7779292580950348,1.5012958159123508
1.7478033387249368,1.5019208349864193
1.7225525681325726,1.4906704916531877
1.737803033539842,1.4809201940977201
1.766303903317362,1.4817952208014162
1.794429761650441,1.4689198278756064
1.819430524613178,1.4554194158757288
1.840306161687063,1.453669362468337
1.848806421094394,1.461169591357158
1.8179304788354138,1.4574194769127478
1.7893046052430799,1.445419110690634
1.7946797692800684,1.440293954283273
1.806805139316996,1.4425440229499193
1.8263057344279305,1.4302936490981781
1.851181493575854,1.417668263801996
1.841931211279641,1.4190433057649465
1.8030550248725852,1.4277935728019044
1.7931797235023041,1.4101680349131749
1.7886795861690117,1.3854172795800654
1.7810543534653769,1.3785420697653128
1.7895546128727073,1.3761669972838526
1.7906796472060307,1.3639166234321116
1.788054567094943,1.3524162724692528
1.7815543687246316,1.345166051210059
1.7756791894283883,1.344291024506363
1.76080373546556,1.3389158604693747
1.74180315561388,1.33129062776574
1.7483033539841915,1.324915433210242
1.7578036439100315,1.3212903225806452
1.7715540635395368,1.3131650746177557
1.7768042237617114,1.2955395367290263
1.7764292123172705,1.2885393230994597
1.73942808313242,1.3011647083956421
1.7118022400585957,1.3032897732474746
1.729427777947325,1.2891643421735284
1.7759291970580158,1.274163884395886
1.753178502761925,1.2665386516922512
1.7168023926511429,1.2715388042847988
1.7133022858363598,1.268288705099643
1.7411781365398113,1.2506631672109134
1.7541785332804345,1.2499131443220315
1.7170524002807703,1.2691637318033389
1.691426618243965,1.2819141209143345
1.6941767021698662,1.2645385906552324
1.7160523697622607,1.2514131900997956
1.6931766716513565,1.2566633503219704
1.6656758323923462,1.2565383465071565
1.6639257789849544,1.2506631672109134
1.6759261452070682,1.2549132969145786
1.686676473281045,1.2640385753959777
1.6886765343180639,1.2725388348033082
1.702176946317942,1.2632885525070956
1.7034269844660788,1.258788415173803
1.6840513931699574,1.2762889492477187
1.6820513321329387,1.2851642200994904
1.6920516373180334,1.2911644032105474
1.6823013397625661,1.2941644947660755
1.675176122318186,1.2952895290993989
1.6381749931333354,1.299539658803064
1.6221745048371838,1.3021647389141515
1.6235495468001342,1.2985396282845545
1.635174901577807,1.300789696951201
1.6496753440961944,1.305914853358562
1.6431751457258827,1.3012897122104556
1.6371749626148258,1.3084149296548357
1.630424756614887,1.3186652424695577
1.6199244361705374,1.3159151585436568
1.6254246040223395,1.3070398876918852
1.635174901577807,1.311040009765923
1.6401750541703544,1.3259154637287516
1.6473002716147345,1.3429159825434127
1.621299478133488,1.3507912228766747
1.5959237037263099,1.360166508987701
1.6110491653187657,1.3697918027283549
1.629674733726005,1.36691671498764
1.624924588763085,1.373291909543138
1.5740480361339153,1.3884173711355938
1.5750480666524247,1.3997927182836392
1.591923581652272,1.3984176763206884
1.60304892117069,1.4019177831354717
1.5989237952818385,1.423543443098239
1.6071740470595417,1.440293954283273
1.6082990813928648,1.4451691030610065
1.6221745048371838,1.4502942594683677
1.5955486922818691,1.4567944578386791
1.5774231391338847,1.4642946867275002
1.563047700430311,1.4712949003570666
1.561172643208106,1.4721699270607624
1.5762981048005615,1.465544724875637
1.5959237037263099,1.471919919431135
1.5712979522080142,1.4927955565050204
1.5446721396526994,1.492545548875393
1.5492972808008056,1.488170415356914
1.5621726737266153,1.4944206060975982
1.5937986388744774,1.5059209570604573
1.6051739860225227,1.5092960600604266
1.5914235663930174,1.5092960600604266
1.5779231543931396,1.515921262245552
1.5989237952818385,1.5229214758751182
1.5841733451338236,1.5255465559862058
1.5826732993560595,1.5314217352824486
1.56742283394879,1.536921903134251
1.57217297891171,1.540922025208289
1.55554747154149,1.5472972197637866
1.5467972045045322,1.5417970519119846
1.5542974333933532,1.5401720023194068
1.5542974333933532,1.5501723075045015
1.5722979827265235,1.5620476699118016
1.567797845393231,1.566172795800653
1.5734230170598467,1.5632977080599384
1.6015488753929257,1.568172856837672
1.6025489059114353,1.564297738578448
1.564297738578448,1.5519223609118933
1.5422970671712395,1.5530473952452162
1.565797784356212,1.5587975707266457
1.6036739402447586,1.56742283394879
1.6072990508743554,1.5690478835413677
1.5667978148747217,1.5669228186895352
1.5511723380230111,1.5687978759117405
1.561047639393292,1.5706729331339457
1.5564224982451857,1.5691728873561817
1.5684228644672995,1.570172917874691
1.582923306985687,1.5756730857264931
1.5601726126895963,1.5846733603930783
1.553547410504471,1.5891734977263712
1.5667978148747217,1.5826732993560595
1.5856733909115879,1.5744230475783563
1.591923581652272,1.5697979064302499
1.5675478377636038,1.5691728873561817
1.559172582171087,1.5646727500228887
1.5747980590227975,1.5625476851710562
1.6024239020966218,1.5692978911709952
1.5889234900967437,1.561922666096988
1.5837983336893826,1.5519223609118933
1.607049043244728,1.549547288430433
1.60067384868923,1.5600476088747826
1.5777981505783258,1.5609226355784784
1.5574225287636951,1.557172521134068
1.5732980132450332,1.5704229255043185
1.6107991576891385,1.58167326883755
1.6221745048371838,1.5762981048005615
1.6064240241706595,1.5664228034302805
1.5790481887264625,1.5726729941709647
1.5672978301339764,1.5894235053559984
1.5754230780968657,1.5911735587633902
1.616924344615009,1.5686728720969267
1.6584256111331521,1.5496722922452468
1.625674611651967,1.5522973723563342
1.5676728415784174,1.5580475478377636
1.565797784356212,1.5592975859859004
1.5935486312448501,1.5541724295785393
1.625674611651967,1.5467972045045322
1.64105008087405,1.5450471510971404
1.6326748252815333,1.5331717886898404
1.6509253822443313,1.515546250801111
1.6721760307626576,1.5124211554307687
1.6588006225775933,1.526671590319529
1.6025489059114353,1.5381719412823878
1.5846733603930783,1.540046998504593
1.6040489516891996,1.540922025208289
1.633674855800043,1.53892196417127
1.6763011566515091,1.5315467390972626
1.6811763054292428,1.535671864986114
1.638299996948149,1.548797265541551
1.60304892117069,1.5425470748008667
1.6051739860225227,1.5341718192083498
1.6250495925778985,1.534921842097232
1.6493003326517535,1.5392969756157109
1.6720510269478437,1.522671468245491
1.679926267281106,1.491670522171697
1.669300943021943,1.4944206060975982
1.6429251380962555,1.5105460982085634
1.6511753898739585,1.5096710715048678
1.6440501724295786,1.492545548875393
1.630799768059328,1.4730449537644583
1.6469252601702933,1.4635446638386183
1.656550553910947,1.4696698507644885
1.6635507675405132,1.4727949461348309
1.6785512253181556,1.4745449995422222
1.7126772667622914,1.4749200109866634
1.7146773277993104,1.4815452131717888
1.675676137577441,1.485295327616199
1.6396750389110997,1.4859203466902677
1.6231745353556932,1.489295449690237
1.6440501724295786,1.4939205908383435
1.671301004058962,1.4862953581347087
1.6810513016144293,1.482295236060671
1.657800592059084,1.4792951445051423
1.6465502487258523,1.480295175023652
1.6496753440961944,1.4829202551347391
1.6603006683553576,1.480295175023652
1.6571755729850153,1.4786701254310741
1.6661758476516009,1.467544785912656
1.7126772667622914,1.4470441602832118
1.7135522934659873,1.4510442823572498
1.6486753135776848,1.4785451216162602
1.624049562059389,1.4971706900234993
1.6309247718741418,1.4971706900234993
1.6631757560960723,1.4899204687643055
1.669175939207129,1.4942956022827847
1.6498003479110082,1.4946706137272256
1.6478002868739892,1.4864203619495224
1.6458002258369702,1.482295236060671
1.6533004547257912,1.4867953733939634
1.6623007293923764,1.4970456862086856
1.6606756797997986,1.5061709646900845
1.6781762138737144,1.4942956022827847
1.683051362651448,1.4889204382457961
1.6645507980590228,1.484545304727317
1.6416750999481187,1.4901704763939327
1.6310497756889553,1.5006707968382824
1.6270496536149175,1.4946706137272256
1.6365499435407576,1.4871703848384046
1.6656758323923462,1.4732949613940856
1.6965517746513261,1.4722949308755762
1.683051362651448,1.4864203619495224
1.7038019959105197,1.485295327616199
1.701301919614246,1.4849203161717581
1.6543004852443006,1.4946706137272256
1.6155493026520584,1.5006707968382824
1.62917471846675,1.500420789208655
1.626049623096408,1.5034208807641836
1.6325498214667196,1.5085460371715445
1.6471752677999205,1.5129211706900234
1.6685509201330608,1.5195463728751488
1.678676229132969,1.524296517838069
1.6625507370220038,1.5185463423566392
1.6528004394665363,1.5060459608752708
1.643925168614765,1.5144212164677877
1.6674258857997375,1.5280466322824793
1.6724260383922849,1.5245465254676962
1.6888015381328776,1.5105460982085634
1.6466752525406658,1.5002957853938415
1.6140492568742943,1.5014208197271646
1.6160493179113133,1.506795983764153
1.635549913022248,1.4992957548753318
1.6544254890591144,1.4919205298013245
1.6434251533555102,1.4979207129123815
1.6314247871333964,1.509171056245613
1.6431751457258827,1.5094210638752406
1.666425855281228,1.5070459913937804
1.6679259010589922,1.51279616687521
1.647425275429548,1.515546250801111
1.6164243293557543,1.5125461592455824
1.6179243751335184,1.5039208960234383
1.6309247718741418,1.5070459913937804
1.639550035096286,1.5252965483565784
1.631174779503769,1.531671742912076
1.6237995544297616,1.52229645680105
1.627674672688986,1.5086710409863584
1.6289247108371228,1.5076710104678488
1.6277996765037996,1.5187963499862667
1.6174243598742637,1.5169212927640614
1.6204244514297923,1.5086710409863584
1.6290497146519365,1.5171713003936889
1.635924924466689,1.535671864986114
1.6548005005035553,1.5331717886898404
1.6913016144291515,1.5171713003936889
1.6584256111331521,1.5274216132084109
1.6201744438001648,1.5450471510971404
1.629674733726005,1.54604718161565
1.6332998443556017,1.5379219336527605
1.640300057985168,1.5427970824304942
1.6434251533555102,1.5387969603564562
1.633549851985229,1.5302967009491257
1.630049745170446,1.5185463423566392
1.6574255806146427,1.5260465712454605
1.6326748252815333,1.5401720023194068
1.6176743675038912,1.5377969298379466
1.6239245582445754,1.5275466170232246
1.6305497604297006,1.5191713614307079
1.6409250770592365,1.51992138431959
1.6435501571703237,1.5186713461714532
1.6499253517258217,1.5129211706900234
1.6555505233924375,1.517921323282571
1.6463002410962249,1.5326717734305857
1.6469252601702933,1.5352968535416731
1.6535504623554185,1.526671590319529
1.6874264961699272,1.5211714224677266
1.7053020416882838,1.5231714835047456
1.6549255043183693,1.5259215674306468
1.6119241920224616,1.5271716055787836
1.6162993255409406,1.5235464949491868
1.633174840540788,1.522171452986236
1.6533004547257912,1.526671590319529
1.693426679280984,1.5255465559862058
1.6946767174291208,1.532921781060213
1.639925046540727,1.546422193060091
1.6060490127262186,1.5414220404675436
1.613799249244667,1.5276716208380383
1.6455502182073427,1.528546647541734
1.6483003021332439,1.549547288430433
1.6279246803186131,1.5604226203192237
1.6262996307260353,1.5489222693563647
1.6374249702444532,1.5374219183935056
1.6461752372814111,1.5371719107638784
1.64105008087405,1.5457971739860226
1.6526754356517228,1.5394219794305246
1.6808012939848018,1.5342968230231637
1.658925626392407,1.540046998504593
1.6485503097628713,1.5352968535416731
1.6579255958738974,1.5296716818750573
1.6483003021332439,1.5364218878749962
1.6456752220221567,1.5417970519119846
1.6734260689107945,1.5374219183935056
1.6681759086886196,1.537671926023133
1.6345498825037386,1.549547288430433
1.644675191503647,1.5607976317636647
1.6550505081331828,1.5570475173192542
1.6352999053926207,1.5427970824304942
1.6235495468001342,1.5437971129490036
1.6124242072817165,1.55554747154149
1.6380499893185219,1.561172643208106
1.6643007904293954,1.556797509689627
1.6651758171330913,1.5474222235786004
1.636674947355571,1.5511723380230111
1.6340498672444839,1.5457971739860226
1.6604256721701711,1.532546769615772
1.6816763206884975,1.5272966093935971
1.6580505996887114,1.5326717734305857
1.653800469985046,1.5276716208380383
1.66717587817011,1.5156712546159246
1.6640507827997681,1.515921262245552
1.6489253212073123,1.5256715598010193
1.6491753288369395,1.538046937467574
1.6703009735404524,1.528671651356548
1.708802148503067,1.511921140171514
1.6985518356883451,1.5170462965788751
1.6421751152073734,1.5326717734305857
1.6369249549851985,1.5272966093935971
1.6571755729850153,1.5144212164677877
1.680676290169988,1.510796105838191
1.6461752372814111,1.5117961363567003
1.6416750999481187,1.5057959532456433
1.6531754509109775,1.5086710409863584
1.6414250923184912,1.5124211554307687
1.628424695577868,1.5012958159123508
1.631674794763024,1.482295236060671
1.6496753440961944,1.476295052949614
1.6639257789849544,1.4825452436902982
1.677926206244087,1.484545304727317
1.6728010498367258,1.4776700949125645
1.6543004852443006,1.4727949461348309
1.6495503402813807,1.4741699880977814
1.6476752830591754,1.4726699423200171
1.669675954466384,1.4716699118015075
1.6920516373180334,1.4717949156163215
1.6904265877254554,1.4839202856532487
1.6443001800592059,1.5079210180974763
1.6166743369853815,1.513921201208533
1.6181743827631458,1.5111711172826319
1.6286747032074953,1.5129211706900234
1.629299722281564,1.5169212927640614
1.6262996307260353,1.5195463728751488
1.6244245735038303,1.5121711478011413
1.626424634540849,1.4957956480605488
1.6394250312814722,1.4844203009125034
1.6536754661702324,1.4870453810235909
1.6590506302072208,1.488545426801355
1.6325498214667196,1.481420209356975
1.6154242988372447,1.4771700796533098
1.611799188207648,1.474294991912595
1.6160493179113133,1.45816949980163
1.6282996917630543,1.451294289986877
1.6481752983184301,1.4660447401348917
1.669675954466384,1.4661697439497057
1.6791762443922238,1.453669362468337
1.6729260536515398,1.4539193700979645
1.6394250312814722,1.4685448164311656
1.6157993102816859,1.4939205908383435
1.6170493484298227,1.507546006653035
1.6394250312814722,1.5100460829493088
1.6599256569109164,1.5156712546159246
1.6886765343180639,1.5186713461714532
1.6729260536515398,1.5321717581713308
1.607424054689169,1.5346718344676047
1.6040489516891996,1.5470472121341592
1.6225495162816248,1.555922482985931
1.6182993865779596,1.5417970519119846
1.6219244972075564,1.5207964110232857
1.6140492568742943,1.5141712088381603
1.6055489974669637,1.5134211859492783
1.6112991729483932,1.5170462965788751
1.624924588763085,1.5124211554307687
1.643050141911069,1.5142962126529742
1.6650508133182775,1.5161712698751793
1.6929266640217293,1.5111711172826319
1.6913016144291515,1.5019208349864193
1.6549255043183693,1.5015458235419783
1.6503003631702629,1.5181713309121982
1.655800531022065,1.526671590319529
1.6635507675405132,1.5167962889492477
1.6613006988738672,1.5074210028382216
1.6618007141331217,1.5160462660603655
1.658925626392407,1.5347968382824184
1.6408000732444226,1.5351718497268594
1.643925168614765,1.5214214300973539
1.6388000122074038,1.511546128727073
1.6274246650593585,1.5150462355418564
1.61492428357799,1.5201713919492172
1.6170493484298227,1.5112961210974456
1.6369249549851985,1.4951706289864803
1.632299813837092,1.4891704458754236
1.6281746879482406,1.4841702932828762
1.6501753593554491,1.4816702169866023
1.6505503707998903,1.4844203009125034
1.6640507827997681,1.5009208044679097
1.675551133762627,1.5132961821344646
1.6638007751701407,1.508421033356731
1.6658008362071597,1.5030458693197426
1.6546754966887418,1.5026708578753014
1.657800592059084,1.4955456404309213
1.673551072725608,1.4867953733939634
1.6968017822809534,1.4879204077272867
1.7173024079103976,1.505170934171575
1.6783012176885281,1.515546250801111
1.645050202948088,1.5050459303567616
1.628049684133427,1.4901704763939327
1.6595506454664755,1.4895454573198645
1.7160523697622607,1.487295388653218
1.7400531022064882,1.4890454420606098
1.6584256111331521,1.4879204077272867
1.6039239478743859,1.4902954802087467
1.6174243598742637,1.491670522171697
1.670800988799707,1.4727949461348309
1.7161773735770747,1.4594195379497665
1.7333028962065493,1.4694198431348613
1.6896765648365732,1.4849203161717581
1.6618007141331217,1.4825452436902982
1.6758011413922544,1.473544969023713
1.704927030243843,1.477920102542192
1.6896765648365732,1.4871703848384046
1.7140523087252417,1.4737949766533405
1.7325528733176672,1.465169713431196
1.6976768089846492,1.4824202398754844
1.6726760460219123,1.4887954344309824
1.691426618243965,1.4851703238013856
1.7114272286141545,1.4799201635792107
1.7395530869472335,1.4839202856532487
1.754053529465621,1.4941705984679707
1.7200524918362987,1.4979207129123815
1.688301522873623,1.4955456404309213
1.6960517593920712,1.494545609912412
1.7073021027253028,1.500045777764214
1.6961767632068852,1.492545548875393
1.7078021179845577,1.476295052949614
1.7258026673177282,1.4726699423200171
1.6994268623920408,1.4836702780236213
1.7010519119846188,1.490545487838374
1.717552415540025,1.485295327616199
1.7253026520584733,1.475920041505173
1.7203024994659262,1.4774200872829373
1.7355529648731955,1.4876704000976593
1.7546785485396894,1.4835452742088078
1.727927732169561,1.480295175023652
1.6800512710959197,1.4886704306161689
1.6710509964293345,1.4946706137272256
1.6913016144291515,1.487295388653218
1.7255526596881008,1.4751700186162908
1.7115522324289683,1.4837952818384352
1.681551316873684,1.5054209418012026
1.6666758629108556,1.5027958616901151
1.6749261146885588,1.4895454573198645
1.6880515152439954,1.4827952513199256
1.6961767632068852,1.4785451216162602
1.691051606799524,1.473919980468154
1.673176061281167,1.4836702780236213
1.6813013092440567,1.4879204077272867
1.6966767784661398,1.4784201178014467
1.707677114169744,1.461169591357158
1.715552354503006,1.4534193548387098
1.7344279305398724,1.4641696829126867
1.7121772515030367,1.4687948240607929
1.6773011871700187,1.4542943815424054
1.6350498977629933,1.449794244209113
1.63154979094821,1.451794305246132
1.6733010650959808,1.460419568468276
1.6891765495773186,1.4700448622089297
1.6620507217627492,1.4679197973570972
1.643925168614765,1.4679197973570972
1.6551755119479965,1.4747950071718496
1.6661758476516009,1.4730449537644583
1.6611756950590533,1.468419812616352
1.6566755577257606,1.475045014801477
1.6566755577257606,1.4746700033570361
1.6590506302072208,1.462419629505295
1.658550614947966,1.4571694692831203
1.6606756797997986,1.4692948393200476
1.6540504776146734,1.476295052949614
1.6466752525406658,1.4689198278756064
1.6454252143925292,1.4554194158757288
1.6453002105777155,1.452544328135014
1.655425519577624,1.461169591357158
1.6641757866145819,1.4737949766533405
1.6526754356517228,1.4667947630237739
1.632299813837092,1.4585445112460709
1.6082990813928648,1.4656697286904508
1.610549150059511,1.473544969023713
1.6127992187261575,1.478295113986633
1.6236745506149481,1.4747950071718496
1.63154979094821,1.4744199957274087
1.630049745170446,1.4805451826532792
1.6162993255409406,1.4812952055421613
1.611424176763207,1.4755450300607318
1.6231745353556932,1.4757950376903592
1.6581756035035249,1.4754200262459183
1.6235495468001342,1.4811702017273476
1.598673787652211,1.480295175023652
1.6079240699484236,1.4766700643940551
1.6222995086519973,1.482295236060671
1.6463002410962249,1.485795342875454
1.6591756340220343,1.4924205450605792
1.6455502182073427,1.4910455030976288
1.6160493179113133,1.4840452894680625
1.5985487838373975,1.4860453505050812
1.5772981353190711,1.485795342875454
1.5835483260597554,1.480295175023652
1.590798547318949,1.4890454420606098
1.5939236426892909,1.5192963652455214
1.6037989440595721,1.517921323282571
1.6181743827631458,1.469544846949675
1.6236745506149481,1.4689198278756064
1.6166743369853815,1.4847953123569444
1.6162993255409406,1.4795451521347698
1.6329248329111608,1.4706698812829981
1.6361749320963164,1.483045258949553
1.613799249244667,1.4921705374309517
1.60304892117069,1.5034208807641836
1.608174077578051,1.500420789208655
1.6124242072817165,1.5006707968382824
1.6024239020966218,1.4879204077272867
1.6086740928373058,1.4672947782830286
1.6171743522446362,1.4612945951719718
1.596298715170751,1.4899204687643055
1.5729230018005922,1.5194213690603353
1.567047822504349,1.5417970519119846
1.5801732230597858,1.4947956175420394
1.5909235511337627,1.4139181493575854
1.58167326883755,1.4032928250984222
1.57454805139317,1.4307936643574328
1.5787981810968352,1.4515442976165045
1.580923245948668,1.4562944425794244
1.5811732535782954,1.4601695608386487
1.5790481887264625,1.4661697439497057
1.572547990356151,1.4685448164311656
1.5802982268745993,1.474294991912595
1.5849233680227057,1.4546693929868466
1.5671728263191627,1.4397939390240182
1.5542974333933532,1.4526693319498276
1.565422772911771,1.4629196447645496
1.5810482497634815,1.4712949003570666
1.591923581652272,1.4816702169866023
1.5854233832819604,1.482295236060671
1.5882984710226753,1.4312936796166877
1.606174016541032,1.3841672414319286
1.6091741080965607,1.389917416913358
1.6150492873928037,1.4005427411725213
1.6211744743186742,1.414918179876095
1.6136742454298534,1.416418225653859
1.621299478133488,1.4230434278389843
1.6187994018372145,1.4297936338389234
1.6390500198370312,1.3604165166173285
1.6449251991332745,1.297539597766045
1.627674672688986,1.3259154637287516
1.6224245124668113,1.4324187139500106
1.6370499588000123,1.3737919248023926
1.6464252449110386,1.257538377025666
1.6581756035035249,1.2265374309518722
1.667300881984924,1.3057898495437483
1.6640507827997681,1.3140401013214515
1.6666758629108556,1.2799140598773158
1.685051423688467,1.2402878505813777
1.6895515610217597,1.2756639301736503
1.6888015381328776,1.4139181493575854
1.712427259132664,1.2274124576555683
1.7499284035767695,1.063782464064455
1.7406781212805567,1.0744077883236183
1.7321778618732262,1.1364096804712056
1.7065520798364209,1.1579103366191594
1.7063020722067934,1.1549102450636313
1.6991768547624133,1.1230342722861415
1.715552354503006,1.0544071779534288
1.7305528122806482,1.053907162694174
1.7305528122806482,1.0141559495834223
1.7339279152806177,0.9586542558061465
1.7351779534287546,0.9659044770653402
1.7444282357249672,0.9686545609912413
1.7450532547990356,0.954904141361736
1.7388030640583514,0.929903378398999
1.7301778008362072,0.8991524399548326
1.7329278847621081,0.867276467177343
1.729052766502884,0.8749016998809779
1.7150523392437513,0.9192780541398359
1.7114272286141545,0.9566541947691275
1.7136772972808008,0.8755267189550463
1.7180524307992797,0.7957742851039156
1.7125522629474779,0.7548980376598406
1.6951767326883755,0.7431476790673543
1.699301858577227,0.773773613696707
1.7063020722067934,0.8056495864741966
1.7094271675771355,0.8334004333628345
1.7003018890957367,0.8497759331034273
1.7083021332438124,0.7538980071413312
1.7109272133548998,0.6753956114383374
1.7160523697622607,0.6255190893276773
1.7101771904660177,0.619268898586993
1.6955517441328165,0.6471447492904447
1.700551896725364,0.7168968779564806
1.7064270760216071,0.7496478774376659
1.7135522934659873,0.6638952604754784
1.719927488021485,0.5862678914761803
1.697801812799463,0.5847678456984161
1.6810513016144293,0.6388944975127414
1.6724260383922849,0.7098966643269143
1.6763011566515091,0.6853959166234321
1.6898015686513872,0.6055184789574878
1.6800512710959197,0.6138937345500046
1.6706759849848933,0.6912710959196753
1.6665508590960418,0.6990213324381238
1.6475502792443617,0.7341474044007691
1.6435501571703237,0.7165218665120395
1.6398000427259134,0.7298972746971039
1.6499253517258217,0.7023964354380932
1.6481752983184301,0.735772453993347
1.6400500503555409,0.7651483504745629
1.6320498062074649,0.7835239112521745
1.630799768059328,0.7885240638447218
1.628424695577868,0.7791487777336955
1.6244245735038303,0.7772737205114902
1.6274246650593585,0.8013994567705314
1.6190494094668417,0.8717766045106358
1.6250495925778985,0.8937772759178442
1.6312997833185827,0.7968993194372387
1.6491753288369395,0.7465227820673239
1.6506753746147038,0.7761486861781671
1.6473002716147345,0.8078996551408429
1.6445501876888333,0.8355254982146673
1.647425275429548,0.8751517075106052
1.640675069429609,0.8437757499923704
1.6174243598742637,0.845150791955321
1.599173802911466,0.904527603991821
1.611799188207648,0.8626513260292367
1.6135492416150394,0.903402569658498
1.608174077578051,0.9995305032502213
1.6210494705038605,0.8564011352885526
1.634424878688925,0.7941492355113376
1.63154979094821,0.8677764824365978
1.61492428357799,0.9422787560655538
1.6175493636890774,0.9359035615100558
1.6162993255409406,0.927528305917539
1.621299478133488,0.9356535538804285
1.621299478133488,0.9540291146580402
1.628424695577868,1.0121558885464033
1.6259246192815942,1.0399067354350415
1.6186743980224005,1.0110308542130804
1.624049562059389,0.9459038666951506
1.6418001037629322,0.9507790154728842
1.6350498977629933,1.0110308542130804
1.6161743217261269,1.0411567735831784
1.6167993408001955,1.0781579027680288
1.624049562059389,1.06190740684225
1.630424756614887,0.9871551255836665
1.6254246040223395,0.9755297708059939
1.6150492873928037,1.0607823725089267
1.6226745200964385,1.038906704916532
1.6227995239112523,1.0140309457686087
1.6257996154667806,1.0367816400646992
1.6222995086519973,1.0847831049531542
1.6181743827631458,1.1237842951750237
1.6139242530594806,1.0404067506942962
1.6184243903927733,1.0304064455092015
1.6164243293557543,1.06190740684225
1.6002988372447888,1.1192841578417312
1.6087990966521197,1.1215342265083772
1.6044239631336406,1.1491600695822015
1.5960487075411238,1.1550352488784448
1.596673726615192,1.1199091769157994
1.5890484939115572,1.1776609393597215
1.5895485091708121,1.1867862178411206
1.598673787652211,1.1636605121005892
1.6080490737632376,1.1526601763969848
1.6077990661336101,1.2176621601001008
1.5824232917264323,1.308289925840022
1.5976737571337016,1.2554133121738336
1.6177993713187049,1.1926613971373639
1.6239245582445754,1.2212872707296976
1.6171743522446362,1.2561633350627155
1.61254921109653,1.263913571581164
1.6116741843928344,1.2245373699148532
1.6140492568742943,1.2375377666554765
1.6095491195410014,1.2527882320627461
1.6147992797631765,1.287664296395764
1.6042989593188268,1.3151651356547747
1.6040489516891996,1.350666219061861
1.5906735435041353,1.3890423902096622
1.58404834131901,1.3742919400616473
1.5896735129856259,1.3464160893581958
1.5931736198004092,1.368541764580218
1.5866734214300973,1.4510442823572498
1.5799232154301586,1.4789201330607014
1.58879848628193,1.451294289986877
1.6102991424298836,1.4249184850611898
1.625299600207526,1.450919278542436
1.6135492416150394,1.5012958159123508
1.5996738181707206,1.5404220099490342
1.5940486465041048,1.5719229712820828
1.6126742149113438,1.5755480819116796
1.6265496383556628,1.5284216437269205
1.6215494857631152,1.4941705984679707
1.6082990813928648,1.588423474837489
1.5945486617633595,1.6317997985778374
1.61017413861507,1.5282966399121067
1.616924344615009,1.528546647541734
1.6130492263557847,1.5596725974303416
1.6160493179113133,1.6135492416150394
1.6274246650593585,1.6325498214667196
1.6369249549851985,1.6391750236518448
1.6381749931333354,1.6906765953550829
1.6334248481704154,1.6374249702444532
1.6192994170964692,1.6665508590960418
1.6226745200964385,1.6540504776146734
1.6339248634296701,1.6896765648365732
1.6380499893185219,1.7241776177251504
1.6444251838740198,1.683926389355144
1.6449251991332745,1.6898015686513872
1.6267996459852903,1.721927549058504
1.63629993591113,1.6801762749107334
1.6453002105777155,1.679926267281106
1.6536754661702324,1.739303079317606
1.6548005005035553,1.7376780297250283
1.647425275429548,1.7361779839472642
1.6390500198370312,1.7499284035767695
1.6321748100222786,1.7431781975768303
1.6493003326517535,1.727927732169561
1.6434251533555102,1.7278027283547472
1.6424251228370008,1.7160523697622607
1.6454252143925292,1.7244276253547777
1.6428001342814416,1.7633038117618336
1.6329248329111608,1.8121803033539843
1.637924985503708,1.7561785943174535
1.6289247108371228,1.6986768395031586
1.6281746879482406,1.7186774498733484
1.6346748863185523,1.729052766502884
1.6413000885036775,1.7019269386883145
1.6405500656147955,1.7234275948362683
1.6299247413556321,1.7681789605395672
1.6306747642445143,1.7516784569841608
1.6227995239112523,1.7448032471694084
1.6247995849482713,1.7165523850215156
1.6385500045777766,1.7273027130954923
1.6520504165776544,1.7428031861323894
1.6475502792443617,1.728302743614002
1.641925107577746,1.7268026978362376
1.6476752830591754,1.7826794030579547
1.637924985503708,1.788929593798639
1.6385500045777766,1.7244276253547777
1.6367999511703848,1.7451782586138493
1.6312997833185827,1.73230286568804
1.6365499435407576,1.7443032319101537
1.6340498672444839,1.792054689168981
1.6309247718741418,1.7906796472060307
1.639550035096286,1.7864295175023652
1.6535504623554185,1.7351779534287546
1.6593006378368482,1.7366779992065189
1.664925809503464,1.7573036286507766
1.6571755729850153,1.7803043305764947
1.6498003479110082,1.7970548417615282
1.6546754966887418,1.8434312570574054
1.6520504165776544,1.8121803033539843
1.6608006836146123,1.7034269844660788
1.6724260383922849,1.7096771752067628
1.6651758171330913,1.7644288460951567
1.657800592059084,1.8023050019837032
1.6541754814294871,1.7596787011322368
1.6511753898739585,1.7629288003173924
1.6560505386516924,1.7954297921689504
1.655425519577624,1.8484314096499528
1.6579255958738974,1.7651788689840389
1.6461752372814111,1.7116772362437818
1.6440501724295786,1.7006769005401776
1.6428001342814416,1.7304278084658344
1.627674672688986,1.7589286782433546
1.6388000122074038,1.8046800744651632
1.6521754203924681,1.7519284646137883
1.6556755272072514,1.7621787774285103
1.6614257026886807,1.726302682576983
1.6596756492812892,1.7035519882808923
1.6501753593554491,1.7078021179845577
1.6614257026886807,1.7193024689474166
1.66480080568865,1.724302621539964
1.6618007141331217,1.7300527970213935
1.6539254737998597,1.7380530411694692
1.6531754509109775,1.7106772057252724
1.6524254280220954,1.719552476577044
1.6576755882442702,1.7366779992065189
1.6619257179479354,1.7098021790215767
1.6543004852443006,1.8290558183538315
1.6659258400219734,1.7488033692434461
1.6740510879848627,1.6734260689107945
1.6666758629108556,1.6728010498367258
1.66717587817011,1.7094271675771355
1.6614257026886807,1.7328028809472946
1.6564255500961331,1.752053468428602
1.667300881984924,1.7541785332804345
1.660550675984985,1.7895546128727073
1.659800653096103,1.7375530259102145
1.6619257179479354,1.7193024689474166
1.6540504776146734,1.7229275795770134
1.6566755577257606,1.6908015991698966
1.663300759910886,1.7154273506881925
1.6636757713553272,1.7536785180211798
1.670050965910825,1.7350529496139409
1.6621757255775629,1.7823043916135137
1.657800592059084,1.721927549058504
1.6471752677999205,1.711177220984527
1.6533004547257912,1.7211775261696218
1.6573005767998292,1.7269277016510514
1.6626757408368176,1.7400531022064882
1.6566755577257606,1.7586786706137274
1.6546754966887418,1.7466783043916136
1.6571755729850153,1.7420531632435072
1.6508003784295175,1.7158023621326335
1.6571755729850153,1.8684320200201423
1.6674258857997375,1.7535535142063663
1.6781762138737144,1.6503003631702629
1.667675893429365,1.6495503402813807
1.6563005462813196,1.7118022400585957
1.6574255806146427,1.7366779992065189
1.6573005767998292,1.757178624835963
1.647425275429548,1.7428031861323894
1.6686759239478743,1.712802270577105
1.6663008514664144,1.740928128910184
1.6529254432813503,1.7429281899472029
1.6528004394665363,1.7840544450209053
1.6549255043183693,1.737428022095401
1.6519254127628407,1.6746761070589313
1.6460502334665976,1.7360529801324502
1.6425501266518143,1.7453032624286628
1.6601756645405439,1.7218025452436905
1.6575505844294565,1.7625537888729514
1.6634257637256997,1.7335529038361768
1.6703009735404524,1.743303201391644
1.6553005157628102,1.7689289834284494
1.6555505233924375,1.7143023163548692
1.669300943021943,1.718427442243721
1.6539254737998597,1.7369280068361461
1.6556755272072514,1.782554399243141
1.6463002410962249,1.873307168797876
1.6601756645405439,1.769804010132145
1.6685509201330608,1.7020519425031282
1.6641757866145819,1.7316778466139713
1.6560505386516924,1.7803043305764947
1.6600506607257304,1.76792895290994
1.6521754203924681,1.8088052003540147
1.6586756187627796,1.7715540635395368
1.6493003326517535,1.7733041169469284
1.6478002868739892,1.7420531632435072
1.6590506302072208,1.7274277169103063
1.6451752067629017,1.7929297158726767
1.651050386059145,1.7216775414288765
1.6540504776146734,1.7010519119846188
1.658925626392407,1.7495533921323283
1.6543004852443006,1.7513034455397198
1.6405500656147955,1.7469283120212409
1.6540504776146734,1.7023019501327556
1.666425855281228,1.711177220984527
1.6858014465773492,1.7004268929105502
1.6884265266884364,1.738553056428724
1.6385500045777766,1.7359279763176367
1.618924405652028,1.6656758323923462
1.6374249702444532,1.651425397503586
1.6436751609851377,1.7728041016876737
1.6536754661702324,1.7356779686880093
1.6555505233924375,1.6881765190588092
1.6625507370220038,1.682676351207007
1.6621757255775629,1.6929266640217293
1.658925626392407,1.737803033539842
1.656550553910947,1.7101771904660177
1.6616757103183082,1.7266776940214241
1.666800866725669,1.7448032471694084
1.6684259163182469,1.688301522873623
1.6621757255775629,1.686676473281045
1.6553005157628102,1.7271777092806788
1.6445501876888333,1.8514315012054812
1.6535504623554185,1.8104302499465927
1.6798012634662924,1.6555505233924375
1.6784262215033416,1.633174840540788
1.6759261452070682,1.6933016754661703
1.6714260078737755,1.7300527970213935
1.670800988799707,1.737428022095401
1.6734260689107945,1.7298027893917662
1.6681759086886196,1.7220525528733177
1.6780512100589007,1.70617706839198
1.6810513016144293,1.7539285256508073
1.6698009582811977,1.7403031098361157
1.669175939207129,1.705677053132725
1.6788012329477828,1.701301919614246
1.6705509811700798,1.8208055665761285
1.6810513016144293,1.712427259132664
1.6898015686513872,1.6520504165776544
1.686676473281045,1.6560505386516924
1.6820513321329387,1.6828013550218206
1.6790512405774103,1.7430531937620168
1.673676076540422,1.7586786706137274
1.6768011719107638,1.7260526749473555
1.6748011108737448,1.6994268623920408
1.670800988799707,1.688301522873623
1.6723010345774711,1.6864264656514176
1.6813013092440567,1.6838013855403302
1.6836763817255165,1.6960517593920712
1.6748011108737448,1.6955517441328165
1.6610506912442398,1.6848014160588396
1.6573005767998292,1.6936766869106112
1.666425855281228,1.6435501571703237
1.6784262215033416,1.6352999053926207
1.6778012024292734,1.6656758323923462
1.6678008972441787,1.6946767174291208
1.651425397503586,1.666050843836787
1.6650508133182775,1.6481752983184301
1.673676076540422,1.6946767174291208
1.671676015503403,1.6433001495406965
1.6635507675405132,1.599173802911466
1.649425336466567,1.6533004547257912
1.6428001342814416,1.654550492873928
1.6579255958738974,1.6327998290963468
1.6644257942442091,1.6451752067629017
1.6579255958738974,1.6511753898739585
1.6613006988738672,1.673551072725608
1.6508003784295175,1.7300527970213935
1.6581756035035249,1.6759261452070682
1.679926267281106,1.5480472426526688
1.6720510269478437,1.5229214758751182
1.6473002716147345,1.5871734366893522
1.6389250160222175,1.670800988799707
1.6449251991332745,1.697801812799463
1.6341748710592976,1.6480502945036166
1.6536754661702324,1.5374219183935056
1.6611756950590533,1.5141712088381603
1.6669258705404828,1.5691728873561817
1.6656758323923462,1.6071740470595417
1.6678008972441787,1.6354249092074344
1.6650508133182775,1.651425397503586
1.666425855281228,1.6110491653187657
1.6741760917996766,1.58642341380047
1.6665508590960418,1.5935486312448501
1.6699259620960112,1.5717979674672689
1.664925809503464,1.6044239631336406
1.6630507522812585,1.5925486007263405
1.6690509353923155,1.5620476699118016
1.651800408948027,1.5920485854670858
1.6640507827997681,1.5530473952452162
1.6728010498367258,1.5461721854304635
1.6718010193182167,1.5564224982451857
1.667675893429365,1.5781731620227668
1.669300943021943,1.5836733298745689
1.6656758323923462,1.5692978911709952
1.6553005157628102,1.5926736045411543
1.658550614947966,1.5466722006897184
1.6564255500961331,1.4997957701345868
1.665300820947905,1.5209214148380994
1.6728010498367258,1.5626726889858698
1.6728010498367258,1.586048402356029
1.6461752372814111,1.5752980742820522
1.6485503097628713,1.486545365764336
1.667300881984924,1.5021708426160465
1.6940516983550522,1.536921903134251
1.6659258400219734,1.5625476851710562
1.6434251533555102,1.5587975707266457
1.635549913022248,1.5592975859859004
1.639550035096286,1.554672444837794
1.6488003173924985,1.5867984252449112
1.6723010345774711,1.516296273689993
1.6616757103183082,1.5247965330973237
1.6349248939481797,1.5520473647267068
1.630424756614887,1.5807982421338542
1.6329248329111608,1.5975487533188881
1.630799768059328,1.5511723380230111
1.6583006073183386,1.5787981810968352
1.6610506912442398,1.5875484481337934
1.6480502945036166,1.6135492416150394
1.6454252143925292,1.5775481429486986
1.6626757408368176,1.5500473036896878
1.6855514389477217,1.5360468764305553
1.655425519577624,1.57217297891171
1.6279246803186131,1.5764231086153753
1.62204950102237,1.6020488906521806
1.6287997070223093,1.5865484176152838
1.6460502334665976,1.5231714835047456
1.6540504776146734,1.5289216589861752
1.6640507827997681,1.5310467238380079
1.6636757713553272,1.572547990356151
1.6530504470961638,1.56742283394879
1.6393000274666587,1.5665478072450942
1.6456752220221567,1.6115491805780204
1.645050202948088,1.6066740318002868
1.6461752372814111,1.5831733146153144
1.6530504470961638,1.57217297891171
1.6509253822443313,1.5742980437635425
1.6476752830591754,1.5676728415784174
1.6493003326517535,1.5877984557634206
1.6551755119479965,1.6132992339854122
1.6539254737998597,1.6576755882442702
1.6420501113925596,1.6319248023926511
1.6435501571703237,1.5665478072450942
1.6483003021332439,1.5466722006897184
1.6506753746147038,1.5795482039857174
1.6464252449110386,1.635174901577807
1.6364249397259438,1.6294247260963775
1.6573005767998292,1.629674733726005
1.6685509201330608,1.57217297891171
1.6665508590960418,1.5876734519486069
1.684301400799585,1.5920485854670858
1.683926389355144,1.5781731620227668
1.6604256721701711,1.6686759239478743
1.6479252906888027,1.6544254890591144
1.6434251533555102,1.567047822504349
1.6519254127628407,1.5462971892452775
1.6675508896145512,1.6396750389110997
1.6541754814294871,1.7211775261696218
1.6539254737998597,1.5939236426892909
1.6586756187627796,1.501170812097537
1.6659258400219734,1.5406720175786617
1.6621757255775629,1.5744230475783563
1.6541754814294871,1.6187994018372145
1.6455502182073427,1.6266746421704763
1.6515504013183995,1.6116741843928344
1.6408000732444226,1.5811732535782954
1.6453002105777155,1.5851733756523332
1.6601756645405439,1.6034239326151312
1.6670508743552965,1.6040489516891996
1.6515504013183995,1.6226745200964385
1.6616757103183082,1.614549272133549
1.6593006378368482,1.631174779503769
1.6639257789849544,1.6261746269112216
1.670050965910825,1.6576755882442702
1.685926450392163,1.621299478133488
1.685926450392163,1.5581725516525773
1.6743010956144901,1.5422970671712395
1.651050386059145,1.6002988372447888
1.6380499893185219,1.6391750236518448
1.6659258400219734,1.6075490585039827
1.6816763206884975,1.5429220862453077
1.660550675984985,1.535671864986114
1.6584256111331521,1.599173802911466
1.6505503707998903,1.627174657429731
1.6431751457258827,1.6855514389477217
1.6568005615405743,1.668800927762688
1.663300759910886,1.5939236426892909
1.6601756645405439,1.5589225745414594
1.651050386059145,1.5841733451338236
1.6423001190221869,1.6012988677632984
1.6365499435407576,1.6100491348002564
1.636674947355571,1.60304892117069
1.6570505691702018,1.5871734366893522
1.6728010498367258,1.5770481276894437
1.6766761680959503,1.5831733146153144
1.6740510879848627,1.6067990356151007
1.6631757560960723,1.6217994933927427
1.6563005462813196,1.624924588763085
1.6453002105777155,1.591923581652272
1.6606756797997986,1.6099241309854426
1.6845514084292124,1.6032989288003174
1.6739260841700492,1.6302997528000733
1.6741760917996766,1.6433001495406965
1.653425458540605,1.6369249549851985
1.6398000427259134,1.6411750846888638
1.6566755577257606,1.5522973723563342
1.6505503707998903,1.6265496383556628
1.6483003021332439,1.6575505844294565
1.645925229651784,1.642675130466628
1.6282996917630543,1.5939236426892909
1.6465502487258523,1.6197994323557239
1.6611756950590533,1.6147992797631765
1.6573005767998292,1.6339248634296701
1.6604256721701711,1.623299539170507
1.6465502487258523,1.629674733726005
1.6616757103183082,1.66717587817011
1.6739260841700492,1.6868014770958586
1.6745511032441176,1.6721760307626576
1.662925748466445,1.678676229132969
1.6464252449110386,1.6924266487624744
1.670800988799707,1.6730510574663533
1.6739260841700492,1.639925046540727
1.683926389355144,1.6868014770958586
1.6801762749107334,1.6778012024292734
1.6613006988738672,1.6990518509475998
1.6675508896145512,1.6341748710592976
1.6678008972441787,1.5911735587633902
1.6580505996887114,1.6425501266518143
1.6659258400219734,1.6646758018738366
1.6583006073183386,1.6571755729850153
1.6499253517258217,1.6825513473921934
1.6539254737998597,1.651425397503586
1.651050386059145,1.6466752525406658
1.6475502792443617,1.7044270149845882
1.6611756950590533,1.6593006378368482
1.671176000244148,1.613799249244667
1.6689259315775018,1.565422772911771
1.6543004852443006,1.5811732535782954
1.6479252906888027,1.6067990356151007
1.6443001800592059,1.66480080568865
1.6495503402813807,1.673551072725608
1.6500503555406356,1.6511753898739585
1.6499253517258217,1.6045489669484543
1.6561755424665061,1.6147992797631765
1.6528004394665363,1.6339248634296701
1.6608006836146123,1.597173741874447
1.653800469985046,1.625299600207526
1.6594256416516617,1.6236745506149481
1.660550675984985,1.6460502334665976
1.6533004547257912,1.726302682576983
1.6369249549851985,1.6591756340220343
1.6511753898739585,1.562297677541429
1.6471752677999205,1.5227964720603047
1.6513003936887722,1.5472972197637866
1.653425458540605,1.6184243903927733
1.6473002716147345,1.61492428357799
1.6250495925778985,1.5752980742820522
1.6340498672444839,1.6032989288003174
1.6544254890591144,1.6226745200964385
1.6416750999481187,1.631174779503769
1.651050386059145,1.6621757255775629
1.6515504013183995,1.605048982207709
1.634424878688925,1.6381749931333354
1.6544254890591144,1.6350498977629933
1.6535504623554185,1.5576725363933226
1.6529254432813503,1.562297677541429
1.6624257332071901,1.5607976317636647
1.6413000885036775,1.6151742912076175
1.651050386059145,1.5977987609485154
1.6635507675405132,1.5976737571337016
1.6620507217627492,1.613799249244667
1.6530504470961638,1.610549150059511
1.6503003631702629,1.5814232612079226
1.6400500503555409,1.5934236274300364
1.6528004394665363,1.6491753288369395
1.6586756187627796,1.6150492873928037
1.6479252906888027,1.590423535874508
1.6478002868739892,1.568547868282113
1.622924527726066,1.6051739860225227
1.6327998290963468,1.6651758171330913
1.6535504623554185,1.6215494857631152
1.6646758018738366,1.5655477767265848
1.640300057985168,1.5672978301339764
1.6286747032074953,1.5992988067262794
1.63154979094821,1.632299813837092
1.6404250617999818,1.6020488906521806
1.651800408948027,1.584423352763451
1.6606756797997986,1.564297738578448
1.6685509201330608,1.5854233832819604
1.6471752677999205,1.6991768547624133
1.6361749320963164,1.6199244361705374
1.6312997833185827,1.585298379467147
1.6499253517258217,1.5889234900967437
1.6586756187627796,1.5320467543565173
1.6486753135776848,1.491795525986511
1.6559255348368787,1.620924466689047
1.6539254737998597,1.6845514084292124
1.651050386059145,1.6015488753929257
1.641925107577746,1.555172460097049
1.6443001800592059,1.5449221472823267
1.6528004394665363,1.5700479140598773
1.6434251533555102,1.54604718161565
1.6369249549851985,1.561047639393292
1.63629993591113,1.669675954466384
1.6448001953184606,1.6679259010589922
1.6501753593554491,1.5842983489486373
1.6489253212073123,1.56504776146733
1.651425397503586,1.5990487990966522
1.6465502487258523,1.6285496993926818
1.6489253212073123,1.6354249092074344
1.6515504013183995,1.5649227576525162
1.6644257942442091,1.5449221472823267
1.6669258705404828,1.5505473189489425
1.6511753898739585,1.6132992339854122
1.653425458540605,1.6413000885036775
1.6620507217627492,1.562297677541429
1.6568005615405743,1.58404834131901
1.6619257179479354,1.5764231086153753
1.6658008362071597,1.5652977690969574
1.6581756035035249,1.5815482650227364
1.6354249092074344,1.6181743827631458
1.6217994933927427,1.6810513016144293
1.6157993102816859,1.708802148503067
1.6404250617999818,1.6345498825037386
1.662800744651631,1.5319217505417035
1.6625507370220038,1.5010458082827236
1.6501753593554491,1.555172460097049
1.6301747489852596,1.6159243140964994
1.633674855800043,1.6237995544297616
1.6570505691702018,1.5676728415784174
1.6483003021332439,1.5374219183935056
1.6337998596148564,1.5404220099490342
1.6361749320963164,1.63867500839259
1.6468002563554796,1.6170493484298227
1.6556755272072514,1.6928016602069156
1.654550492873928,1.7214275337992493
1.6601756645405439,1.5035458845789973
1.6625507370220038,1.4670447706534013
1.6400500503555409,1.5219214453566088
1.6434251533555102,1.5877984557634206
1.6543004852443006,1.5895485091708121
1.6624257332071901,1.5696729026154363
1.6586756187627796,1.5251715445417646
1.6483003021332439,1.5761731009857478
1.6613006988738672,1.5957986999114964
1.62917471846675,1.6513003936887722
1.644675191503647,1.6347998901333658
1.6594256416516617,1.5605476241340372
1.656925565355388,1.5006707968382824
1.6690509353923155,1.4880454115421002
1.6563005462813196,1.5274216132084109
1.6524254280220954,1.5724229865413375
1.669675954466384,1.6341748710592976
1.673676076540422,1.6079240699484236
1.6449251991332745,1.6590506302072208
1.6414250923184912,1.665300820947905
1.6511753898739585,1.5482972502822963
1.666800866725669,1.5121711478011413
1.664925809503464,1.5187963499862667
1.6608006836146123,1.54604718161565
1.6429251380962555,1.5427970824304942
1.6317997985778374,1.6329248329111608
1.6511753898739585,1.6460502334665976
1.6564255500961331,1.5754230780968657
1.667675893429365,1.5520473647267068
1.6601756645405439,1.5932986236152227
1.644675191503647,1.6200494399853511
1.6535504623554185,1.6064240241706595
1.6341748710592976,1.5956736960966826
1.6454252143925292,1.5557974791711173
1.6389250160222175,1.5534224066896571
1.6376749778740807,1.5387969603564562
1.628049684133427,1.6009238563188575
1.6438001647999512,1.6729260536515398
1.6469252601702933,1.6789262367625966
1.649425336466567,1.5454221625415814
1.6448001953184606,1.5502973113193153
1.6480502945036166,1.6194244209112827
1.6400500503555409,1.611799188207648
1.6374249702444532,1.5739230323191016
1.6491753288369395,1.5370469069490644
1.6356749168370617,1.5510473342081972
1.6453002105777155,1.5479222388378553
1.6393000274666587,1.594298654133732
1.6473002716147345,1.6174243598742637
1.652550431836909,1.6449251991332745
1.6600506607257304,1.563797723319193
1.6413000885036775,1.5271716055787836
1.6294247260963775,1.581298257393109
1.6484253059480574,1.660925687429426
1.6435501571703237,1.7231775872066408
1.6329248329111608,1.6641757866145819
1.635549913022248,1.5522973723563342
1.6520504165776544,1.4796701559495833
1.6580505996887114,1.5452971587267679
1.6499253517258217,1.621299478133488
1.6500503555406356,1.6159243140964994
1.6312997833185827,1.5626726889858698
1.621299478133488,1.56742283394879
1.6384250007629628,1.588423474837489
1.6486753135776848,1.5790481887264625
1.6337998596148564,1.616549333170568
1.6429251380962555,1.5651727652821437
1.6544254890591144,1.592798608355968
1.659800653096103,1.5945486617633595
1.6390500198370312,1.5552974639118626
1.633174840540788,1.5730480056154057
1.6305497604297006,1.5367968993194372
1.6275496688741722,1.5524223761711478
1.6262996307260353,1.5985487838373975
1.635549913022248,1.5891734977263712
1.647050263985107,1.530546708578753
1.635924924466689,1.4927955565050204
1.6255496078371532,1.6800512710959197
1.634424878688925,1.699301858577227
1.6451752067629017,1.5414220404675436
1.6445501876888333,1.4772950834681233
1.6489253212073123,1.5039208960234383
1.6420501113925596,1.5785481734672078
1.6428001342814416,1.5794232001709037
1.6365499435407576,1.5009208044679097
1.6385500045777766,1.6087990966521197
1.6506753746147038,1.635924924466689
1.6444251838740198,1.561047639393292
1.6530504470961638,1.5621726737266153
1.6441751762443924,1.5516723532822658
1.645925229651784,1.565422772911771
1.6484253059480574,1.54604718161565
1.641925107577746,1.524296517838069
1.6266746421704763,1.5125461592455824
1.626049623096408,1.5781731620227668
1.6448001953184606,1.5882984710226753
1.6455502182073427,1.540046998504593
1.6327998290963468,1.5255465559862058
1.6346748863185523,1.609049104281747
1.6530504470961638,1.55079732657857
1.6625507370220038,1.5492972808008056
1.6684259163182469,1.530671712393567
1.660550675984985,1.5006707968382824
1.6475502792443617,1.5211714224677266
1.666425855281228,1.538046937467574
1.6625507370220038,1.5491722769859921
1.6695509506515702,1.53654689168981
1.6413000885036775,1.602673909726249
1.6553005157628102,1.6573005767998292
1.6575505844294565,1.4859203466902677
1.6367999511703848,1.4431690420239875
1.642675130466628,1.5367968993194372
1.6576755882442702,1.6087990966521197
1.6630507522812585,1.6066740318002868
1.6505503707998903,1.6131742301705987
1.6519254127628407,1.5727979979857785
1.637549974059267,1.535671864986114
1.6423001190221869,1.5225464644306772
1.6515504013183995,1.6246745811334575
1.6365499435407576,1.6339248634296701
1.6566755577257606,1.596298715170751
1.6695509506515702,1.5344218268379772
1.642675130466628,1.5449221472823267
1.621299478133488,1.594298654133732
1.627174657429731,1.6037989440595721
1.6411750846888638,1.5905485396893215
1.630799768059328,1.6361749320963164
1.643925168614765,1.6528004394665363
1.642675130466628,1.5514223456526384
1.637924985503708,1.502420850245674
1.6388000122074038,1.4705448774681846
1.61017413861507,1.56504776146733
1.6454252143925292,1.627299661244545
1.6398000427259134,1.5615476546525469
1.6210494705038605,1.5037958922086248
1.6210494705038605,1.5761731009857478
1.6294247260963775,1.5977987609485154
1.6147992797631765,1.5351718497268594
1.610549150059511,1.58879848628193
1.624049562059389,1.559047578356273
1.630424756614887,1.5111711172826319
1.6346748863185523,1.4931705679494613
1.6247995849482713,1.4959206518753625
1.6127992187261575,1.5366718955046237
1.628049684133427,1.5614226508377331
1.6347998901333658,1.4851703238013856
1.6357999206518754,1.5014208197271646
1.640300057985168,1.566297799615467
1.6275496688741722,1.560672627948851
1.6299247413556321,1.5381719412823878
1.631674794763024,1.4755450300607318
1.6297997375408186,1.4210433668019655
1.613799249244667,1.4884204229865414
1.6310497756889553,1.561922666096988
1.631174779503769,1.534921842097232
1.6265496383556628,1.4964206671346172
1.628049684133427,1.492920560319834
1.6222995086519973,1.4896704611346783
1.6290497146519365,1.5430470900601214
1.6352999053926207,1.5239215063936278
1.6339248634296701,1.5099210791344952
1.628424695577868,1.4959206518753625
1.6404250617999818,1.4870453810235909
1.6282996917630543,1.4920455336161382
1.6329248329111608,1.5029208655049286
1.643050141911069,1.5092960600604266
1.6465502487258523,1.501170812097537
1.6377999816888944,1.454169377727592
1.6181743827631458,1.432668721579638
1.6237995544297616,1.4605445722830899
1.6414250923184912,1.502045838801233
1.6385500045777766,1.5665478072450942
1.6349248939481797,1.441418988616596
1.614174260689108,1.4849203161717581
1.6398000427259134,1.4619196142460402
1.632424817651906,1.421293374431593
1.6230495315408795,1.4205433515427108
1.6219244972075564,1.4144181646168401
1.6176743675038912,1.4462941373943297
1.62917471846675,1.4234184392834255
1.6349248939481797,1.3996677144688254
1.6255496078371532,1.4450440992461928
1.6479252906888027,1.443794061098056
1.6581756035035249,1.4256685079500717
1.6560505386516924,1.405417889950255
1.6535504623554185,1.4345437788018434
1.6413000885036775,1.4217933896908477
1.6393000274666587,1.4070429395428328
1.637549974059267,1.4590445265053256
1.638299996948149,1.4666697592089604
1.6438001647999512,1.4321687063203834
1.6476752830591754,1.3705418256172368
1.6468002563554796,1.4405439619129004
1.6571755729850153,1.4475441755424665
1.6499253517258217,1.3921674855800044
1.6357999206518754,1.4102930387279886
1.6287997070223093,1.4820452284310435
1.6515504013183995,1.436293832209235
1.6568005615405743,1.408542985320597
1.6550505081331828,1.4344187749870296
1.6594256416516617,1.416418225653859
1.6398000427259134,1.4734199652088993
1.6488003173924985,1.4229184240241708
1.6438001647999512,1.5002957853938415
1.6636757713553272,1.5731730094302194
1.6744260994293039,1.4672947782830286
1.6581756035035249,1.3995427106540117
1.6491753288369395,1.382417188024537
1.6476752830591754,1.3686667683950315
1.6409250770592365,1.5151712393566699
1.6596756492812892,1.560672627948851
1.6748011108737448,1.5442971282082585
1.6776761986144597,1.4625446333201089
1.6476752830591754,1.3884173711355938
1.6345498825037386,1.4334187444685202
1.6215494857631152,1.4935455793939025
1.6448001953184606,1.511921140171514
1.6436751609851377,1.4621696218756677
1.6458002258369702,1.4542943815424054
1.6155493026520584,1.3647916501358075
1.618924405652028,1.487420392468032
1.6339248634296701,1.5631727042451247
1.6361749320963164,1.5300466933194983
1.6201744438001648,1.4954206366161078
1.6016738792077396,1.4000427259132666
1.6254246040223395,1.418793298135319
1.6215494857631152,1.389917416913358
1.628049684133427,1.4665447553941466
1.6500503555406356,1.5671728263191627
1.633549851985229,1.5960487075411238
1.6346748863185523,1.4815452131717888
1.5975487533188881,1.376041993469039
1.5935486312448501,1.4722949308755762
1.6302997528000733,1.5426720786156805
1.6561755424665061,1.506795983764153
1.6573005767998292,1.4092930082094792
1.637924985503708,1.3929175084688865
1.624049562059389,1.5165462813196202
1.6226745200964385,1.6217994933927427
1.6611756950590533,1.4875453962828455
1.6485503097628713,1.4076679586169012
1.6555505233924375,1.4646696981719414
1.6509253822443313,1.5469222083193457
1.6486753135776848,1.5656727805413984
1.628424695577868,1.5279216284676658
1.6167993408001955,1.6391750236518448
1.6536754661702324,1.5575475325785089
1.6306747642445143,1.4766700643940551
1.6435501571703237,1.3840422376171149
1.631674794763024,1.4426690267647329
1.6580505996887114,1.5021708426160465
1.6603006683553576,1.5195463728751488
1.642675130466628,1.5552974639118626
1.6140492568742943,1.5136711935789056
1.64105008087405,1.5689228797265542
1.651050386059145,1.5750480666524247
1.6601756645405439,1.4595445417645803
1.6201744438001648,1.5379219336527605
1.6641757866145819,1.6007988525040437
1.6548005005035553,1.616924344615009
1.6516754051332134,1.6014238715781122
1.641925107577746,1.5710479445783867
1.6610506912442398,1.5174213080233163
1.6710509964293345,1.4725449385052034
1.6564255500961331,1.4974206976531268
1.6496753440961944,1.6396750389110997
1.6791762443922238,1.6069240394299142
1.622924527726066,1.640675069429609
1.6686759239478743,1.611799188207648
1.6674258857997375,1.508796044801172
1.6619257179479354,1.4919205298013245
1.6408000732444226,1.4550444044312876
1.6239245582445754,1.5709229407635732
1.6641757866145819,1.6034239326151312
1.6624257332071901,1.5680478530228583
1.6726760460219123,1.6237995544297616
1.6438001647999512,1.6476752830591754
1.6610506912442398,1.6424251228370008
1.6770511795403913,1.562297677541429
1.669175939207129,1.5404220099490342
1.6274246650593585,1.5497972960600603
1.644675191503647,1.6476752830591754
1.66717587817011,1.5466722006897184
1.6509253822443313,1.4884204229865414
1.655800531022065,1.556797509689627
1.6695509506515702,1.6162993255409406
1.6644257942442091,1.7071770989104893
1.66717587817011,1.5955486922818691
1.6513003936887722,1.5200463881344035
1.6445501876888333,1.526671590319529
1.660550675984985,1.5489222693563647
1.6643007904293954,1.5910485549485762
1.66717587817011,1.586048402356029
1.6615507065034945,1.637549974059267
1.6580505996887114,1.6265496383556628
1.6327998290963468,1.7140523087252417
1.63629993591113,1.6651758171330913
1.6616757103183082,1.592798608355968
1.6621757255775629,1.499670766319773
1.6466752525406658,1.4805451826532792
1.633549851985229,1.4844203009125034
1.6136742454298534,1.5352968535416731
1.6162993255409406,1.6214244819483017
1.6576755882442702,1.6504253669850764
1.6738010803552354,1.6421751152073734
1.6728010498367258,1.6242995696890163
1.662800744651631,1.5914235663930174
1.6434251533555102,1.5284216437269205
1.6327998290963468,1.6613006988738672
1.6549255043183693,1.6016738792077396
1.6451752067629017,1.630424756614887
1.667300881984924,1.570547929319132
1.6608006836146123,1.5142962126529742
1.6337998596148564,1.6337998596148564
1.6428001342814416,1.63154979094821
1.6420501113925596,1.5646727500228887
1.6506753746147038,1.5062959685048982
1.6435501571703237,1.5382969450972015
1.634299874874111,1.5355468611713006
1.6142992645039216,1.6171743522446362
1.6289247108371228,1.6310497756889553
1.6305497604297006,1.5655477767265848
1.6287997070223093,1.5195463728751488
1.6435501571703237,1.5204213995788447
1.628424695577868,1.5126711630603962
1.635924924466689,1.630424756614887
1.634299874874111,1.5786731772820215
1.6135492416150394,1.5041709036530655
1.6468002563554796,1.4745449995422222
1.6594256416516617,1.5350468459120459
1.6681759086886196,1.5079210180974763
1.6573005767998292,1.485420331431013
1.6445501876888333,1.5056709494308298
1.6391750236518448,1.5465471968749047
1.638299996948149,1.6659258400219734
1.6659258400219734,1.5959237037263099
1.6641757866145819,1.4967956785790582
1.6568005615405743,1.4736699728385265
1.6424251228370008,1.485420331431013
1.625299600207526,1.437043855098117
1.6239245582445754,1.5575475325785089
1.6520504165776544,1.5996738181707206
1.6544254890591144,1.6555505233924375
1.6661758476516009,1.5502973113193153
1.6611756950590533,1.4175432599871822
1.6309247718741418,1.3710418408764915
1.6334248481704154,1.4997957701345868
1.6595506454664755,1.5636727195043794
1.6620507217627492,1.5255465559862058
1.6513003936887722,1.45816949980163
1.6498003479110082,1.4564194463942381
1.6551755119479965,1.5186713461714532
1.6464252449110386,1.587298440504166
1.6476752830591754,1.6913016144291515
1.6641757866145819,1.5866734214300973
1.6636757713553272,1.3675417340617084
1.6478002868739892,1.4000427259132666
1.651800408948027,1.4274185613574633
1.669175939207129,1.467544785912656
1.6620507217627492,1.4421690115054782
1.6531754509109775,1.491295510727256
1.654550492873928,1.5457971739860226
1.6471752677999205,1.5282966399121067
1.635924924466689,1.485420331431013
1.6646758018738366,1.5030458693197426
1.6706759849848933,1.4862953581347087
1.6601756645405439,1.4729199499496444
1.6544254890591144,1.4507942747276223
1.655425519577624,1.4614195989867855
1.6625507370220038,1.5021708426160465
1.66717587817011,1.4617946104312267
1.665300820947905,1.473544969023713
1.663300759910886,1.4776700949125645
1.6528004394665363,1.4807951902829066
1.6504253669850764,1.4502942594683677
1.6295497299111912,1.550422315134129
1.6458002258369702,1.539671987060152
1.6546754966887418,1.4464191412091434
1.6548005005035553,1.384292245246742
1.6460502334665976,1.409793023468734
1.658925626392407,1.4610445875423446
1.6710509964293345,1.4804201788384654
1.681926328318125,1.4666697592089604
1.675551133762627,1.4589195226905116
1.666800866725669,1.4666697592089604
1.6516754051332134,1.4777950987273782
1.639925046540727,1.4665447553941466
1.633549851985229,1.4564194463942381
1.6084240852076785,1.51042109439375
1.6294247260963775,1.5255465559862058
1.666050843836787,1.4416689962462232
1.6601756645405439,1.5771731315042574
1.6374249702444532,1.5364218878749962
1.6456752220221567,1.4020427869502854
1.6620507217627492,1.377167027802362
1.656925565355388,1.3969176305429243
1.6625507370220038,1.4430440382091738
1.7015519272438735,1.441043977172155
1.7469283120212409,1.4376688741721853
1.7475533310953093,1.4445440839869381
1.6600506607257304,1.4590445265053256
1.5981737723929563,1.4746700033570361
1.618924405652028,1.4656697286904508
1.6849264198736535,1.4287936033204138
1.7251776482436598,1.421668385876034
1.668800927762688,1.4442940763573107
1.628424695577868,1.447794183172094
1.626049623096408,1.438293893246254
1.6295497299111912,1.4324187139500106
1.651050386059145,1.4405439619129004
1.668050904873806,1.4495442365794855
1.6730510574663533,1.4356688131351665
1.6654258247627187,1.4174182561723685
1.6549255043183693,1.4046678670613728
1.6608006836146123,1.3806671346171453
1.6705509811700798,1.355416364024781
1.669175939207129,1.3366657918027283
1.6636757713553272,1.34079091769158
1.642675130466628,1.3546663411358988
1.6332998443556017,1.3464160893581958
1.6416750999481187,1.3206653035065767
1.6675508896145512,1.2701637623218482
1.684676412244026,1.239287820062868
1.7099271828363902,1.2541632740256965
1.7439282204657125,1.26478859828486
1.786554521317179,1.259538438062685
1.7318028504287852,1.2704137699514757
1.677176183355205,1.2744138920255135
1.6573005767998292,1.2685387127292702
1.6706759849848933,1.252413220618305
1.7213025299844356,1.2407878658406324
1.7680539567247535,1.243662953581347
1.7055520493179113,1.2516631977294228
1.6086740928373058,1.257163365581225
1.594298654133732,1.258788415173803
1.635924924466689,1.2454130069887388
1.673551072725608,1.2379127780999177
1.698926847132786,1.254413281655324
1.6901765800958282,1.278664021729179
1.662925748466445,1.2895393536179693
1.6810513016144293,1.2959145481734673
1.7293027741325113,1.3041647999511703
1.7656788842432936,1.3260404675435653
1.7643038422803432,1.3439160130619219
1.7281777397991884,1.3607915280617695
1.6948017212439344,1.3817921689504684
1.6561755424665061,1.3927925046540726
1.6201744438001648,1.3944175542466506
1.5885484786523028,1.3989176915799433
1.5782981658375803,1.4040428479873044
1.5931736198004092,1.4042928556169316
1.6456752220221567,1.4175432599871822
1.6899265724662007,1.4202933439130834
1.6864264656514176,1.4016677755058444
1.6469252601702933,1.3921674855800044
1.6411750846888638,1.39066743980224
1.6468002563554796,1.3952925809503465
1.6640507827997681,1.394667561876278
1.6955517441328165,1.3864173100985748
1.7281777397991884,1.3795421002838222
1.753178502761925,1.3801671193578906
1.7519284646137883,1.3860422986541339
1.693426679280984,1.3929175084688865
1.6726760460219123,1.4026678060243538
1.63867500839259,1.4012927640614032
1.6096741233558154,1.3980426648762476
1.629674733726005,1.4119180883205664
1.6559255348368787,1.4086679891354106
1.6945517136143071,1.399042695394757
1.6896765648365732,1.4011677602465895
1.6971767937253945,1.4170432447279275
1.701301919614246,1.4289186071352276
1.6884265266884364,1.4210433668019655
1.7039269997253335,1.4142931608020264
1.7083021332438124,1.4159182103946044
1.677176183355205,1.4281685842463454
1.711177220984527,1.4169182409131138
1.7285527512436292,1.4250434888760033
1.699676870021668,1.4514192938016908
1.6631757560960723,1.4495442365794855
1.6749261146885588,1.439043916135136
1.6853014313180945,1.449294228949858
1.7109272133548998,1.483420270393994
1.7340529190954315,1.5274216132084109
1.6803012787255471,1.556672505874813
1.6002988372447888,1.5689228797265542
1.5804232306894133,1.5709229407635732
1.5965487228003785,1.5825482955412458
1.656925565355388,1.5901735282448806
1.7119272438734092,1.596798730430006
1.7026769615771966,1.6142992645039216
1.6211744743186742,1.6309247718741418
1.5772981353190711,1.641925107577746
1.5676728415784174,1.6423001190221869
1.5837983336893826,1.6460502334665976
1.6177993713187049,1.649050325022126
1.631174779503769,1.660925687429426
1.5980487685781428,1.6638007751701407
1.5921735892818996,1.6580505996887114
1.5632977080599384,1.669175939207129
1.5639227271340068,1.6838013855403302
1.5936736350596639,1.6845514084292124
1.6171743522446362,1.6769261757255778
1.6320498062074649,1.6663008514664144
1.7350529496139409,1.656550553910947
1.8375560777611624,1.6580505996887114
1.6869264809106725,1.6744260994293039
1.5339218115787225,1.6790512405774103
1.5154212469862973,1.6721760307626576
1.5897985168004394,1.6464252449110386
1.6372999664296397,1.6227995239112523
1.6369249549851985,1.6326748252815333
1.6157993102816859,1.6486753135776848
1.6207994628742333,1.6570505691702018
1.6669258705404828,1.6560505386516924
1.6763011566515091,1.665300820947905
1.6370499588000123,1.6689259315775018
1.5771731315042574,1.6725510422070986
1.5501723075045015,1.6790512405774103
1.5671728263191627,1.6794262520218513
1.6325498214667196,1.6788012329477828
1.6818013245033114,1.6891765495773186
1.6533004547257912,1.6873014923551135
1.6190494094668417,1.6921766411328472
1.5870484328745385,1.7035519882808923
1.5911735587633902,1.7116772362437818
1.611799188207648,1.7083021332438124
1.6297997375408186,1.7019269386883145
1.6508003784295175,1.7020519425031282
1.6730510574663533,1.704927030243843
1.7179274269844662,1.6959267555772577
1.6868014770958586,1.701301919614246
1.6396750389110997,1.7154273506881925
1.660925687429426,1.7333028962065493
1.6588006225775933,1.73942808313242
1.6946767174291208,1.7446782433545946
1.7099271828363902,1.7629288003173924
1.6729260536515398,1.7815543687246316
1.6154242988372447,1.789679616687521
1.5981737723929563,1.7893046052430799
1.6345498825037386,1.7863045136875517
1.6766761680959503,1.7858044984282968
1.7470533158360546,1.7870545365764336
1.7441782280953397,1.804805078279977
1.6345498825037386,1.8211805780205697
1.5684228644672995,1.8295558336130864
1.5807982421338542,1.8095552232428969
1.6041739555040133,1.7874295480208746
1.6270496536149175,1.7853044831690421
1.639550035096286,1.769804010132145
1.655800531022065,1.7466783043916136
1.6704259773552659,1.729052766502884
1.6695509506515702,1.7404281136509292
1.6818013245033114,1.7530534989471116
1.6874264961699272,1.738553056428724
1.6885515305032504,1.6979268166142767
1.6725510422070986,1.6760511490218817
1.6279246803186131,1.6835513779107028
1.607049043244728,1.6790512405774103
1.6590506302072208,1.6595506454664755
1.7043020111697744,1.6309247718741418
1.6631757560960723,1.6210494705038605
1.6639257789849544,1.6329248329111608
1.6911766106143375,1.6282996917630543
1.63867500839259,1.6122992034669026
1.5811732535782954,1.6009238563188575
1.5867984252449112,1.5836733298745689
1.622924527726066,1.5647977538377027
1.6096741233558154,1.549547288430433
1.6207994628742333,1.5450471510971404
1.5970487380596332,1.5510473342081972
1.5671728263191627,1.5374219183935056
1.5785481734672078,1.4999207739494005
1.6059240089114046,1.482670247505112
1.6367999511703848,1.4890454420606098
1.6350498977629933,1.4927955565050204
1.6177993713187049,1.5017958311716058
1.5734230170598467,1.5097960753196813
1.5750480666524247,1.507170995208594
1.6231745353556932,1.487295388653218
1.671676015503403,1.4747950071718496
1.675176122318186,1.4922955412457657
1.6495503402813807,1.5267965941343424
1.5687978759117405,1.5437971129490036
1.5339218115787225,1.540046998504593
1.5600476088747826,1.5327967772453994
1.6072990508743554,1.533671803949095
1.6286747032074953,1.5220464491714225
1.6167993408001955,1.5144212164677877
1.5965487228003785,1.5166712851344342
1.5949236732078005,1.5272966093935971
1.6217994933927427,1.5322967619861447
1.6360499282815029,1.5274216132084109
1.627299661244545,1.51279616687521
1.614174260689108,1.5014208197271646
1.6196744285409101,1.5002957853938415
1.633174840540788,1.4967956785790582
1.6274246650593585,1.4961706595049897
1.6511753898739585,1.5065459761345255
1.681926328318125,1.5187963499862667
1.6464252449110386,1.5215464339121678
1.596298715170751,1.5220464491714225
1.5834233222449416,1.5214214300973539
1.6049239783928952,1.5201713919492172
1.6469252601702933,1.5215464339121678
1.6919266335032197,1.5326717734305857
1.6608006836146123,1.5492972808008056
1.586048402356029,1.5665478072450942
1.5851733756523332,1.5706729331339457
1.5920485854670858,1.5680478530228583
1.5994238105410932,1.5821732840968048
1.607424054689169,1.5932986236152227
1.6017988830225531,1.5889234900967437
1.5834233222449416,1.5686728720969267
1.587298440504166,1.5536724143192846
1.5937986388744774,1.5592975859859004
1.595173680837428,1.568172856837672
1.6286747032074953,1.558297555467391
1.642675130466628,1.5390469679860834
1.609049104281747,1.542422070986053
1.5911735587633902,1.5562974944303722
1.6176743675038912,1.5481722464674825
1.6543004852443006,1.5331717886898404
1.6949267250587483,1.5331717886898404
1.6579255958738974,1.55317239906003
1.5636727195043794,1.5601726126895963
1.5542974333933532,1.5517973570970793
1.5916735740226449,1.5450471510971404
1.6560505386516924,1.548797265541551
1.6643007904293954,1.552672383800775
1.5994238105410932,1.5565475020599995
1.5989237952818385,1.5496722922452468
1.6774261909848323,1.5472972197637866
1.6720510269478437,1.561922666096988
1.5697979064302499,1.5655477767265848
1.5299216895046848,1.5624226813562427
1.5496722922452468,1.5499222998748743
1.5870484328745385,1.5324217658009582
1.6269246498001038,1.51992138431959
1.6571755729850153,1.521796441541795
1.6476752830591754,1.5240465102084415
1.624049562059389,1.5292966704306161
1.623299539170507,1.5240465102084415
1.6310497756889553,1.5130461745048374
1.638299996948149,1.5161712698751793
1.6560505386516924,1.5282966399121067
1.6729260536515398,1.5300466933194983
1.6594256416516617,1.5225464644306772
1.6384250007629628,1.5259215674306468
1.6330498367259743,1.5370469069490644
1.6111741691335797,1.5375469222083193
1.6234245429853207,1.5367968993194372
1.6748011108737448,1.5330467848750269
1.7299277932065797,1.5381719412823878
1.6694259468367565,1.5432970976897489
1.5772981353190711,1.5404220099490342
1.530671712393567,1.5364218878749962
1.5386719565416427,1.5342968230231637
1.5756730857264931,1.5311717276528216
1.61254921109653,1.5200463881344035
1.6576755882442702,1.5042959074678794
1.673176061281167,1.5012958159123508
1.6455502182073427,1.515546250801111
1.6179243751335184,1.5195463728751488
1.6239245582445754,1.5022958464308604
1.6122992034669026,1.4862953581347087
1.6424251228370008,1.479420148319956
1.6568005615405743,1.4774200872829373
1.6267996459852903,1.4776700949125645
1.6211744743186742,1.4777950987273782
1.635924924466689,1.4767950682088686
1.6600506607257304,1.4697948545793025
1.6601756645405439,1.458044495986816
1.6416750999481187,1.4570444654683066
1.6423001190221869,1.4511692861720633
1.6805512863551746,1.4397939390240182
1.6911766106143375,1.431918698690756
1.6491753288369395,1.4450440992461928
1.6391750236518448,1.4485442060609761
1.6750511185033723,1.447794183172094
1.592298593096713,1.4555444196905423
1.5770481276894437,1.4484192022461622
1.6424251228370008,1.4294186223944823
1.6684259163182469,1.4087929929502243
1.6429251380962555,1.3980426648762476
1.6140492568742943,1.406542924283578
1.6200494399853511,1.4086679891354106
1.6221745048371838,1.4052928861354412
1.64105008087405,1.4000427259132666
1.6656758323923462,1.3947925656910916
1.6765511642811366,1.3957925962096012
1.652550431836909,1.3969176305429243
1.643925168614765,1.3896674092837307
1.6546754966887418,1.3827921994689778
1.6769261757255778,1.378417065950499
1.7034269844660788,1.3891673940244758
1.689051545762505,1.3944175542466506
1.649425336466567,1.3916674703207497
1.6421751152073734,1.3964176152836694
1.645925229651784,1.394667561876278
1.6435501571703237,1.3810421460615863
1.6695509506515702,1.3811671498764
1.685051423688467,1.4042928556169316
1.6270496536149175,1.4221684011352886
1.6060490127262186,1.413293130283517
1.639550035096286,1.3854172795800654
1.6670508743552965,1.36216657002472
1.6644257942442091,1.3622915738395336
1.6625507370220038,1.3980426648762476
1.6516754051332134,1.431918698690756
1.6230495315408795,1.4325437177648244
1.5956736960966826,1.4175432599871822
1.5935486312448501,1.4021677907650991
1.61254921109653,1.3956675923947877
1.6297997375408186,1.4070429395428328
1.6443001800592059,1.4204183477278969
1.6526754356517228,1.4292936185796687
1.6520504165776544,1.431543687246315
1.643925168614765,1.4332937406537065
1.6509253822443313,1.4301686452833644
1.6576755882442702,1.4269185460982088
1.6550505081331828,1.4261685232093266
1.667675893429365,1.4371688589129308
1.6743010956144901,1.4572944730979338
1.6821763359477524,1.451294289986877
1.639925046540727,1.435918820764794
1.5917985778374584,1.433043733024079
1.5739230323191016,1.447294167912839
1.6014238715781122,1.4480441908017212
1.6599256569109164,1.4369188512833035
1.6608006836146123,1.4417940000610372
1.629674733726005,1.4490442213202308
1.6254246040223395,1.449794244209113
1.6195494247260964,1.44529410687582
1.6286747032074953,1.4380438856166264
1.6458002258369702,1.4345437788018434
1.6535504623554185,1.4351687978759118
1.6551755119479965,1.4386689046906949
1.653800469985046,1.4334187444685202
1.6440501724295786,1.4282935880611591
1.6433001495406965,1.4336687520981475
1.6376749778740807,1.4347937864314706
1.6513003936887722,1.4310436719870603
1.6763011566515091,1.4232934354686118
1.6856764427625355,1.4351687978759118
1.6599256569109164,1.4510442823572498
1.6404250617999818,1.4534193548387098
1.6130492263557847,1.4510442823572498
1.609799127170629,1.454044373912778
1.6281746879482406,1.4559194311349835
1.6621757255775629,1.4520443128757592
1.641925107577746,1.4490442213202308
1.6186743980224005,1.4582945036164434
1.6202994476149783,1.4689198278756064
1.6111741691335797,1.4731699575792718
1.598673787652211,1.4741699880977814
1.6142992645039216,1.476295052949614
1.6372999664296397,1.473544969023713
1.6476752830591754,1.4602945646534624
1.6337998596148564,1.448919217505417
1.6139242530594806,1.4570444654683066
1.6102991424298836,1.4676697897274698
1.6265496383556628,1.4527943357646413
1.6435501571703237,1.4360438245796074
1.6523004242072816,1.436668843653676
1.6661758476516009,1.4391689199499496
1.670050965910825,1.434668782616657
1.684301400799585,1.4399189428388317
1.6620507217627492,1.4469191564683983
1.6513003936887722,1.4380438856166264
1.6531754509109775,1.4246684774315623
1.675551133762627,1.4226684163945433
1.6813013092440567,1.4395439313943907
1.6201744438001648,1.463169652394177
1.5757980895413068,1.452544328135014
1.5984237800225838,1.4325437177648244
1.6339248634296701,1.4285435956907866
1.6561755424665061,1.4335437482833338
1.6498003479110082,1.436668843653676
1.6465502487258523,1.4375438703573717
1.6390500198370312,1.4316686910611285
1.6471752677999205,1.4215433820612202
1.6666758629108556,1.4086679891354106
1.6875514999847407,1.4042928556169316
1.6431751457258827,1.4309186681722466
1.6221745048371838,1.440293954283273
1.6246745811334575,1.421668385876034
1.6398000427259134,1.4067929319132053
1.6641757866145819,1.4117930845057527
1.7065520798364209,1.4199183324686422
1.7508034302804651,1.4214183782464065
1.7186774498733484,1.4179182714316232
1.6706759849848933,1.4246684774315623
1.6200494399853511,1.4285435956907866
1.6207994628742333,1.4156682027649772
1.6357999206518754,1.4080429700613422
1.6456752220221567,1.4189183019501328
1.653425458540605,1.4379188818018127
1.6575505844294565,1.4420440076906644
1.6579255958738974,1.4234184392834255
1.6460502334665976,1.4059179052095097
1.6443001800592059,1.4019177831354717
1.6520504165776544,1.4000427259132666
1.6640507827997681,1.4027928098391673
1.6621757255775629,1.4044178594317454
1.6306747642445143,1.394667561876278
1.6112991729483932,1.377667043061617
1.6250495925778985,1.3847922605059968
1.6491753288369395,1.401792779320658
1.668800927762688,1.4044178594317454
1.6983018280587177,1.3967926267281106
1.7181774346140937,1.3892923978392897
1.6848014160588396,1.390292428357799
1.647425275429548,1.3975426496169927
1.6619257179479354,1.3964176152836694
1.6581756035035249,1.3942925504318369
1.6434251533555102,1.3996677144688254
1.636674947355571,1.401792779320658
1.6753011261329998,1.4012927640614032
1.6944267097994934,1.4001677297280801
1.6354249092074344,1.4027928098391673
1.597173741874447,1.4125431073946348
1.6024239020966218,1.4237934507278664
1.6241745658742028,1.416418225653859
1.642675130466628,1.3992927030243845
1.6428001342814416,1.4032928250984222
1.6645507980590228,1.4201683400982696
1.6961767632068852,1.430668660542619
1.685926450392163,1.4185432905056918
1.625174596392712,1.4039178441724907
1.6111741691335797,1.4074179509872737
1.6294247260963775,1.4154181951353497
1.6575505844294565,1.419293313394574
1.6750511185033723,1.4134181340983307
1.6881765190588092,1.415293191320536
1.6971767937253945,1.423668446913053
1.684301400799585,1.4325437177648244
1.6750511185033723,1.4314186834315012
1.6720510269478437,1.4322937101351971
1.6544254890591144,1.443419049653615
1.624924588763085,1.4446690878017519
1.6244245735038303,1.4312936796166877
1.6443001800592059,1.4217933896908477
1.6705509811700798,1.431543687246315
1.719927488021485,1.4470441602832118
1.699301858577227,1.4511692861720633
1.6551755119479965,1.4526693319498276
1.6124242072817165,1.453669362468337
1.611424176763207,1.4491692251350443
1.6197994323557239,1.434293771172216
1.640675069429609,1.4321687063203834
1.652550431836909,1.4429190343943603
1.669675954466384,1.4486692098757896
1.7161773735770747,1.4455441145054475
1.7285527512436292,1.4471691640980255
1.6658008362071597,1.45816949980163
1.6352999053926207,1.465544724875637
1.6414250923184912,1.4677947935422835
1.6448001953184606,1.464419690542314
1.6354249092074344,1.4595445417645803
1.6429251380962555,1.4712949003570666
1.6500503555406356,1.4809201940977201
1.6646758018738366,1.475920041505173
1.6955517441328165,1.473919980468154
1.691426618243965,1.484545304727317
1.655800531022065,1.4951706289864803
1.6317997985778374,1.4882954191717277
1.6162993255409406,1.4860453505050812
1.6340498672444839,1.4967956785790582
1.6339248634296701,1.4994207586901458
1.654550492873928,1.4924205450605792
1.66480080568865,1.4927955565050204
1.6448001953184606,1.4987957396160771
1.6480502945036166,1.496045655690176
1.6483003021332439,1.49379558702353
1.6505503707998903,1.4970456862086856
1.6749261146885588,1.5120461439863278
1.6415500961333047,1.5102960905789362
1.643925168614765,1.506795983764153
1.653425458540605,1.5196713766899625
1.658925626392407,1.5311717276528216
1.66717587817011,1.5204213995788447
1.6765511642811366,1.5082960295419172
1.6874264961699272,1.5175463118381298
1.6740510879848627,1.5312967314676351
1.6540504776146734,1.5321717581713308
1.6466752525406658,1.5240465102084415
1.6451752067629017,1.5204213995788447
1.6544254890591144,1.5211714224677266
1.668800927762688,1.5259215674306468
1.6388000122074038,1.5341718192083498
1.6100491348002564,1.5315467390972626
1.611424176763207,1.5310467238380079
1.6329248329111608,1.52704660176397
1.6754261299478135,1.5106711020233772
1.6838013855403302,1.4987957396160771
1.6365499435407576,1.5076710104678488
1.629299722281564,1.518296334727012
1.6594256416516617,1.521796441541795
1.6593006378368482,1.5194213690603353
1.6365499435407576,1.5085460371715445
1.6581756035035249,1.5112961210974456
1.6725510422070986,1.518296334727012
1.671176000244148,1.5121711478011413
1.6541754814294871,1.5099210791344952
1.6261746269112216,1.5154212469862973
1.6242995696890163,1.5224214606158635
1.6391750236518448,1.5219214453566088
1.6478002868739892,1.5175463118381298
1.6556755272072514,1.5195463728751488
1.6539254737998597,1.5249215369121372
1.6491753288369395,1.526546586504715
1.6486753135776848,1.5284216437269205
1.645925229651784,1.5324217658009582
1.6287997070223093,1.5429220862453077
1.6420501113925596,1.5442971282082585
1.6834263740958892,1.5375469222083193
1.6749261146885588,1.54604718161565
1.6533004547257912,1.55317239906003
1.6511753898739585,1.5457971739860226
1.6579255958738974,1.535671864986114
1.6384250007629628,1.5437971129490036
1.6079240699484236,1.5532974028748436
1.6190494094668417,1.5401720023194068
1.6511753898739585,1.5180463270973845
1.666050843836787,1.5141712088381603
1.6559255348368787,1.5276716208380383
1.654550492873928,1.53892196417127
1.6533004547257912,1.5386719565416427
1.6624257332071901,1.5347968382824184
1.691051606799524,1.5290466628009889
1.7006769005401776,1.5287966551713614
1.6468002563554796,1.5374219183935056
1.6000488296151616,1.5404220099490342
1.6072990508743554,1.5437971129490036
1.6434251533555102,1.540922025208289
1.6645507980590228,1.53654689168981
1.666050843836787,1.5367968993194372
1.6429251380962555,1.5430470900601214
1.6312997833185827,1.5381719412823878
1.640675069429609,1.5255465559862058
1.656925565355388,1.5331717886898404
1.6768011719107638,1.5469222083193457
1.6551755119479965,1.5570475173192542
1.6349248939481797,1.5472972197637866
1.6485503097628713,1.5332967925046541
1.652550431836909,1.526171575060274
1.641925107577746,1.5247965330973237
1.6376749778740807,1.5277966246528518
1.6475502792443617,1.5255465559862058
1.6551755119479965,1.528671651356548
1.666425855281228,1.5267965941343424
1.6813013092440567,1.5191713614307079
1.670800988799707,1.5194213690603353
1.6523004242072816,1.5220464491714225
1.6480502945036166,1.5191713614307079
1.647050263985107,1.510796105838191
1.6391750236518448,1.503170873134556
1.6289247108371228,1.5112961210974456
1.652550431836909,1.5136711935789056
1.6750511185033723,1.5140462050233467
1.6521754203924681,1.5176713156529436
1.6277996765037996,1.5076710104678488
1.6586756187627796,1.492920560319834
1.6854264351329082,1.485795342875454
1.6479252906888027,1.483045258949553
1.6434251533555102,1.4825452436902982
1.6595506454664755,1.5012958159123508
1.6275496688741722,1.5212964262825404
1.6051739860225227,1.5025458540604877
1.6176743675038912,1.487420392468032
1.632299813837092,1.4859203466902677
1.6424251228370008,1.4827952513199256
1.6651758171330913,1.478295113986633
1.702551957762383,1.4745449995422222
1.6988018433179723,1.490545487838374
1.626424634540849,1.5074210028382216
1.5870484328745385,1.5021708426160465
1.6062990203558458,1.4832952665791803
1.6339248634296701,1.4777950987273782
1.6568005615405743,1.4840452894680625
1.6838013855403302,1.4757950376903592
1.6968017822809534,1.4709198889126254
1.6651758171330913,1.4796701559495833
1.6381749931333354,1.490545487838374
1.6485503097628713,1.4887954344309824
1.6535504623554185,1.4799201635792107
1.6531754509109775,1.473919980468154
1.6878015076143682,1.4775450910977508
1.7364279915768914,1.4870453810235909
1.7140523087252417,1.4972956938383128
1.6267996459852903,1.5026708578753014
1.5917985778374584,1.5061709646900845
1.614174260689108,1.5027958616901151
1.6266746421704763,1.4891704458754236
1.6261746269112216,1.4755450300607318
1.627299661244545,1.4855453352458265
1.6509253822443313,1.5160462660603655
1.6874264961699272,1.5350468459120459
1.687051484725486,1.5292966704306161
1.6678008972441787,1.517921323282571
1.667300881984924,1.5194213690603353
1.6614257026886807,1.5251715445417646
1.6423001190221869,1.5259215674306468
1.6127992187261575,1.5239215063936278
1.6321748100222786,1.5219214453566088
1.6861764580217904,1.526171575060274
1.6796762596514787,1.5340468153935363
1.628049684133427,1.5395469832453383
1.627674672688986,1.5427970824304942
1.6388000122074038,1.5474222235786004
1.6356749168370617,1.547547227393414
1.6341748710592976,1.546422193060091
1.63867500839259,1.5481722464674825
1.649050325022126,1.5429220862453077
1.6499253517258217,1.5370469069490644
1.6454252143925292,1.552797387615589
1.6287997070223093,1.5696729026154363
1.6192994170964692,1.5729230018005922
1.6241745658742028,1.56029761650441
1.651800408948027,1.5454221625415814
1.6970517899105808,1.5485472579119235
1.7123022553178504,1.5711729483932007
1.6603006683553576,1.5817982726523636
1.5869234290597247,1.5837983336893826
1.5656727805413984,1.5797982116153446
1.5936736350596639,1.5815482650227364
1.627174657429731,1.5806732383190405
1.6458002258369702,1.5755480819116796
1.640300057985168,1.5802982268745993
1.634299874874111,1.599173802911466
1.633174840540788,1.6102991424298836
1.6371749626148258,1.6014238715781122
1.628049684133427,1.5905485396893215
1.6216744895779291,1.5939236426892909
1.6259246192815942,1.6032989288003174
1.629674733726005,1.6076740623187964
1.6326748252815333,1.609424115726188
1.6334248481704154,1.6219244972075564
1.6270496536149175,1.63154979094821
1.6286747032074953,1.6237995544297616
1.6659258400219734,1.608174077578051
1.6896765648365732,1.6067990356151007
1.6451752067629017,1.6194244209112827
1.6157993102816859,1.623299539170507
1.6354249092074344,1.6230495315408795
1.6435501571703237,1.6277996765037996
1.612174199652089,1.6415500961333047
1.5979237647633289,1.6394250312814722
1.6056740012817774,1.6282996917630543
1.624924588763085,1.6215494857631152
1.6325498214667196,1.6190494094668417
1.6455502182073427,1.6085490890224923
1.6468002563554796,1.598798791467025
1.6261746269112216,1.5965487228003785
1.6206744590594195,1.609049104281747
1.6255496078371532,1.613799249244667
1.6339248634296701,1.5990487990966522
1.6634257637256997,1.5847983642078922
1.675176122318186,1.588423474837489
1.6508003784295175,1.5990487990966522
1.6032989288003174,1.5979237647633289
1.597173741874447,1.5890484939115572
1.6159243140964994,1.5886734824671163
1.6267996459852903,1.5957986999114964
1.6332998443556017,1.5997988219855341
1.6438001647999512,1.5894235053559984
1.6515504013183995,1.5882984710226753
1.6460502334665976,1.5931736198004092
1.6360499282815029,1.5847983642078922
1.6421751152073734,1.5732980132450332
1.6436751609851377,1.5787981810968352
1.6445501876888333,1.5882984710226753
1.640675069429609,1.5794232001709037
1.6555505233924375,1.5595475936155279
1.6796762596514787,1.564172734763634
1.6297997375408186,1.5770481276894437
1.5839233375041963,1.5744230475783563
1.592798608355968,1.5580475478377636
1.6237995544297616,1.5544224372081668
1.6495503402813807,1.5562974944303722
1.6641757866145819,1.554672444837794
1.634424878688925,1.5704229255043185
1.6194244209112827,1.5790481887264625
1.6297997375408186,1.5767981200598165
1.6500503555406356,1.5592975859859004
1.670050965910825,1.5410470290231024
1.6669258705404828,1.5405470137638477
1.6486753135776848,1.5469222083193457
1.6332998443556017,1.5492972808008056
1.6267996459852903,1.5540474257637258
1.6393000274666587,1.555922482985931
1.6644257942442091,1.553547410504471
1.669175939207129,1.5427970824304942
1.6479252906888027,1.5282966399121067
1.656550553910947,1.5142962126529742
1.6781762138737144,1.5085460371715445
1.663300759910886,1.5124211554307687
1.618549394207587,1.5111711172826319
1.6065490279854733,1.504045899838252
1.6277996765037996,1.4952956328012939
1.6535504623554185,1.489795464949492
1.6508003784295175,1.483420270393994
1.6466752525406658,1.4775450910977508
1.6579255958738974,1.4821702322458572
1.6683009125034334,1.489295449690237
1.6575505844294565,1.485795342875454
1.6483003021332439,1.4817952208014162
1.6549255043183693,1.480670186468093
1.6704259773552659,1.4906704916531877
1.6681759086886196,1.492920560319834
1.6531754509109775,1.4754200262459183
1.6376749778740807,1.469544846949675
1.6190494094668417,1.4856703390606403
1.6443001800592059,1.4950456251716666
1.668800927762688,1.4930455641346478
1.6590506302072208,1.4935455793939025
1.6479252906888027,1.4955456404309213
1.635174901577807,1.4841702932828762
1.633674855800043,1.4610445875423446
1.6309247718741418,1.4614195989867855
1.6453002105777155,1.4784201178014467
1.6704259773552659,1.4787951292458876
1.6818013245033114,1.4677947935422835
1.6780512100589007,1.4599195532090212
1.651800408948027,1.4621696218756677
1.6445501876888333,1.4665447553941466
1.639550035096286,1.4646696981719414
1.640300057985168,1.464419690542314
1.6420501113925596,1.465544724875637
1.6455502182073427,1.460794579912717
1.6456752220221567,1.4590445265053256
1.647050263985107,1.4676697897274698
1.6639257789849544,1.4665447553941466
1.6918016296884062,1.451794305246132
1.6824263435773796,1.464419690542314
1.633549851985229,1.4832952665791803
1.6082990813928648,1.491295510727256
1.611799188207648,1.4832952665791803
1.6262996307260353,1.4652947172460096
1.6420501113925596,1.4554194158757288
1.6793012482070377,1.4617946104312267
1.7134272896511735,1.4747950071718496
1.6828013550218206,1.4737949766533405
1.6119241920224616,1.4687948240607929
1.590298532059694,1.4640446790978727
1.607049043244728,1.4642946867275002
1.6274246650593585,1.4681698049867247
1.6451752067629017,1.4642946867275002
1.6670508743552965,1.4550444044312876
1.669675954466384,1.4592945341349528
1.66717587817011,1.4596695455793938
1.679926267281106,1.460044557023835
1.642675130466628,1.4691698355052338
1.6036739402447586,1.474294991912595
1.6037989440595721,1.4745449995422222
1.6312997833185827,1.4647947019867549
1.6553005157628102,1.4594195379497665
1.6555505233924375,1.4716699118015075
1.647425275429548,1.4745449995422222
1.6528004394665363,1.4706698812829981
1.6625507370220038,1.4725449385052034
1.633549851985229,1.489795464949492
1.634299874874111,1.505545945616016
1.6643007904293954,1.5036708883938108
1.679926267281106,1.4887954344309824
1.6725510422070986,1.4870453810235909
1.6573005767998292,1.493295571764275
1.6535504623554185,1.4859203466902677
1.6471752677999205,1.4724199346903897
1.6528004394665363,1.4752950224311043
1.6591756340220343,1.4817952208014162
1.6881765190588092,1.4796701559495833
1.7276777245399335,1.4817952208014162
1.6521754203924681,1.4946706137272256
1.6014238715781122,1.4991707510605183
1.6140492568742943,1.4949206213568529
1.6421751152073734,1.4861703543198952
1.653425458540605,1.487795403912473
1.6508003784295175,1.5029208655049286
1.6533004547257912,1.505545945616016
1.6823013397625661,1.4962956633198035
1.6976768089846492,1.4867953733939634
1.6650508133182775,1.4889204382457961
1.6433001495406965,1.497670705282754
1.6413000885036775,1.5015458235419783
1.6496753440961944,1.5035458845789973
1.6571755729850153,1.5086710409863584
1.6741760917996766,1.51279616687521
1.6686759239478743,1.5149212317270424
1.6724260383922849,1.5160462660603655
1.6639257789849544,1.5230464796899321
1.671676015503403,1.5332967925046541
1.6979268166142767,1.5344218268379772
1.6550505081331828,1.5250465407269511
1.6142992645039216,1.5172963042085024
1.6069240394299142,1.5271716055787836
1.6167993408001955,1.5337968077639088
1.6449251991332745,1.5249215369121372
1.6888015381328776,1.5141712088381603
1.6810513016144293,1.5141712088381603
1.6449251991332745,1.5240465102084415
1.6224245124668113,1.522671468245491
1.6295497299111912,1.51279616687521
1.6509253822443313,1.5049209265419476
1.6723010345774711,1.5025458540604877
1.683926389355144,1.502045838801233
1.6854264351329082,1.5045459150975067
1.651425397503586,1.509546067690054
1.6246745811334575,1.5166712851344342
1.6295497299111912,1.5180463270973845
1.6445501876888333,1.5042959074678794
1.6471752677999205,1.5062959685048982
1.635924924466689,1.5201713919492172
1.6290497146519365,1.5255465559862058
1.6329248329111608,1.5215464339121678
1.6528004394665363,1.5231714835047456
1.6754261299478135,1.5255465559862058
1.683051362651448,1.5212964262825404
1.6773011871700187,1.5186713461714532
1.6520504165776544,1.5187963499862667
1.6576755882442702,1.5195463728751488
1.6122992034669026,1.51042109439375
1.5877984557634206,1.4967956785790582
1.6009238563188575,1.4825452436902982
1.6277996765037996,1.485295327616199
1.6404250617999818,1.51279616687521
1.6531754509109775,1.5131711783196509
1.660925687429426,1.5009208044679097
1.6706759849848933,1.4837952818384352
1.686676473281045,1.471919919431135
1.7106772057252724,1.473919980468154
1.6845514084292124,1.4825452436902982
1.6524254280220954,1.491295510727256
1.63154979094821,1.4900454725791192
1.6360499282815029,1.4717949156163215
1.6584256111331521,1.45816949980163
1.6728010498367258,1.4677947935422835
1.682676351207007,1.4726699423200171
1.7035519882808923,1.4701698660237434
1.6928016602069156,1.4712949003570666
1.6152992950224312,1.4744199957274087
1.6037989440595721,1.4685448164311656
1.6416750999481187,1.4519193090609455
1.6601756645405439,1.449794244209113
1.6440501724295786,1.4527943357646413
1.6475502792443617,1.4629196447645496
1.662925748466445,1.4687948240607929
1.6774261909848323,1.4565444502090519
1.656550553910947,1.4424190191351054
1.6287997070223093,1.4341687673574024
1.6290497146519365,1.4345437788018434
1.6440501724295786,1.4332937406537065
1.6604256721701711,1.4245434736167486
1.6689259315775018,1.4232934354686118
1.6709259926145208,1.4340437635425884
1.6719260231330302,1.4316686910611285
1.6739260841700492,1.4272935575426497
1.6695509506515702,1.4262935270241401
1.6644257942442091,1.423168431653798
1.668050904873806,1.4119180883205664
1.6909266029847103,1.408917996765038
1.6986768395031586,1.4195433210242012
1.6634257637256997,1.4311686758018738
1.6471752677999205,1.4316686910611285
1.6486753135776848,1.4280435804315317
1.643050141911069,1.4329187292092656
1.6499253517258217,1.4369188512833035
1.6690509353923155,1.435043794061098
1.6476752830591754,1.4320437025055697
1.6361749320963164,1.4304186529129916
1.6197994323557239,1.435043794061098
1.616549333170568,1.4335437482833338
1.6309247718741418,1.4261685232093266
1.6543004852443006,1.4145431684316538
1.6584256111331521,1.4111680654316843
1.6549255043183693,1.417668263801996
1.6500503555406356,1.423668446913053
1.6515504013183995,1.427918576616718
1.6638007751701407,1.429543626209296
1.685051423688467,1.4162932218390454
1.7014269234290598,1.4015427716910305
1.6658008362071597,1.4170432447279275
1.6519254127628407,1.4391689199499496
1.665300820947905,1.4515442976165045
1.6408000732444226,1.4494192327646718
1.630799768059328,1.4426690267647329
1.634299874874111,1.4524193243202002
1.6550505081331828,1.4594195379497665
1.6889265419476913,1.4589195226905116
1.6583006073183386,1.4545443891720329
1.629299722281564,1.449669240394299
1.6180493789483323,1.452919339579455
1.6270496536149175,1.469919858394116
1.6246745811334575,1.4752950224311043
1.6310497756889553,1.4731699575792718
1.6404250617999818,1.468419812616352
1.6478002868739892,1.4585445112460709
1.6506753746147038,1.4564194463942381
1.6635507675405132,1.4657947325052645
1.656550553910947,1.479045136875515
1.654550492873928,1.4740449842829677
1.6639257789849544,1.4691698355052338
1.6529254432813503,1.476295052949614
1.6376749778740807,1.4880454115421002
1.6389250160222175,1.4965456709494307
1.6656758323923462,1.4971706900234993
1.697301797540208,1.4940455946531572
1.6935516830957975,1.4927955565050204
1.6413000885036775,1.5009208044679097
1.627174657429731,1.4974206976531268
1.649425336466567,1.483420270393994
1.6448001953184606,1.4851703238013856
1.639925046540727,1.5066709799493394
1.654550492873928,1.5069209875789666
1.637549974059267,1.5146712240974152
1.6179243751335184,1.5289216589861752
1.630424756614887,1.5205464033936582
1.6571755729850153,1.5080460219122898
1.677926206244087,1.4952956328012939
1.683926389355144,1.4926705526902067
1.664925809503464,1.5082960295419172
1.6190494094668417,1.5200463881344035
