voltage1 (V),voltage2 (V)
1.7106772057252724,1.61492428357799
1.6784262215033416,1.6162993255409406
1.645925229651784,1.6072990508743554
1.6310497756889553,1.596798730430006
1.6428001342814416,1.5981737723929563
1.667675893429365,1.6036739402447586
1.675676137577441,1.5999238258003479
1.6703009735404524,1.585298379467147
1.677551194799646,1.5690478835413677
1.687051484725486,1.563047700430311
1.6953017365031893,1.561797662282174
1.7046770226142156,1.5787981810968352
1.7094271675771355,1.58879848628193
1.6966767784661398,1.5814232612079226
1.6768011719107638,1.5716729636524553
1.6738010803552354,1.5672978301339764
1.670050965910825,1.5784231696523943
1.6769261757255778,1.578923184911649
1.6781762138737144,1.5690478835413677
1.6854264351329082,1.5649227576525162
1.684301400799585,1.5847983642078922
1.6754261299478135,1.6007988525040437
1.6744260994293039,1.6072990508743554
1.6911766106143375,1.6077990661336101
1.7158023621326335,1.6014238715781122
1.7141773125400557,1.6025489059114353
1.6778012024292734,1.6144242683187355
1.6356749168370617,1.6199244361705374
1.6384250007629628,1.6215494857631152
1.666425855281228,1.6270496536149175
1.6780512100589007,1.6376749778740807
1.6898015686513872,1.6391750236518448
1.7075521103549303,1.6269246498001038
1.7145523239844966,1.6204244514297923
1.6840513931699574,1.6217994933927427
1.677926206244087,1.624924588763085
1.693426679280984,1.6334248481704154
1.7045520187994019,1.6449251991332745
1.7101771904660177,1.6481752983184301
1.7075521103549303,1.6454252143925292
1.6976768089846492,1.6440501724295786
1.7030519730216378,1.633174840540788
1.7146773277993104,1.6241745658742028
1.712802270577105,1.62917471846675
1.7078021179845577,1.6367999511703848
1.7086771446882534,1.635924924466689
1.7150523392437513,1.627174657429731
1.7248026367992186,1.613424237800226
1.738553056428724,1.618549394207587
1.7133022858363598,1.6438001647999512
1.6619257179479354,1.6559255348368787
1.6476752830591754,1.6444251838740198
1.6694259468367565,1.6217994933927427
1.698926847132786,1.6139242530594806
1.7030519730216378,1.6194244209112827
1.6898015686513872,1.635549913022248
1.6924266487624744,1.6468002563554796
1.704052003540147,1.6454252143925292
1.7024269539475692,1.6486753135776848
1.6825513473921934,1.645050202948088
1.668800927762688,1.6346748863185523
1.6920516373180334,1.6255496078371532
1.7010519119846188,1.6409250770592365
1.6571755729850153,1.6615507065034945
1.635924924466689,1.6730510574663533
1.6267996459852903,1.668050904873806
1.6377999816888944,1.6515504013183995
1.6686759239478743,1.6458002258369702
1.684301400799585,1.6606756797997986
1.660925687429426,1.6821763359477524
1.6433001495406965,1.6861764580217904
1.6561755424665061,1.6776761986144597
1.6734260689107945,1.6631757560960723
1.6374249702444532,1.6600506607257304
1.6132992339854122,1.6621757255775629
1.6444251838740198,1.660925687429426
1.6645507980590228,1.6645507980590228
1.629674733726005,1.671676015503403
1.595173680837428,1.666050843836787
1.5851733756523332,1.6626757408368176
1.5885484786523028,1.669300943021943
1.597173741874447,1.6659258400219734
1.6119241920224616,1.6509253822443313
1.6289247108371228,1.644675191503647
1.6535504623554185,1.6505503707998903
1.6856764427625355,1.6614257026886807
1.6749261146885588,1.6594256416516617
1.6167993408001955,1.6488003173924985
1.595173680837428,1.6433001495406965
1.630799768059328,1.6503003631702629
1.6834263740958892,1.6621757255775629
1.683051362651448,1.6646758018738366
1.6489253212073123,1.6695509506515702
1.595173680837428,1.6674258857997375
1.585298379467147,1.6573005767998292
1.6004238410596028,1.6643007904293954
1.6164243293557543,1.6743010956144901
1.6327998290963468,1.675176122318186
1.6504253669850764,1.669675954466384
1.658550614947966,1.6646758018738366
1.6665508590960418,1.662800744651631
1.6548005005035553,1.6608006836146123
1.6559255348368787,1.6559255348368787
1.6596756492812892,1.6549255043183693
1.6290497146519365,1.6581756035035249
1.594298654133732,1.6503003631702629
1.6077990661336101,1.641925107577746
1.6416750999481187,1.6408000732444226
1.6521754203924681,1.6440501724295786
1.6341748710592976,1.6372999664296397
1.6156743064668722,1.630799768059328
1.6222995086519973,1.6262996307260353
1.630799768059328,1.6195494247260964
1.6413000885036775,1.6034239326151312
1.666050843836787,1.5940486465041048
1.670800988799707,1.5981737723929563
1.6553005157628102,1.6055489974669637
1.6281746879482406,1.6064240241706595
1.6062990203558458,1.6056740012817774
1.6007988525040437,1.6029239173558765
1.6042989593188268,1.5990487990966522
1.6170493484298227,1.5957986999114964
1.6391750236518448,1.5831733146153144
1.6789262367625966,1.5691728873561817
1.6744260994293039,1.568172856837672
1.6369249549851985,1.5736730246894741
1.6115491805780204,1.5791731925412764
1.6151742912076175,1.5831733146153144
1.6339248634296701,1.5761731009857478
1.6641757866145819,1.561047639393292
1.6844264046143986,1.5505473189489425
1.6963017670216987,1.5397969908749656
1.7085521408734399,1.528171636097293
1.654550492873928,1.5239215063936278
1.632299813837092,1.522671468245491
1.6481752983184301,1.5140462050233467
1.6765511642811366,1.5017958311716058
1.7045520187994019,1.4829202551347391
1.7019269386883145,1.477920102542192
1.673176061281167,1.5007958006530961
1.6719260231330302,1.5212964262825404
1.691051606799524,1.5271716055787836
1.686676473281045,1.5267965941343424
1.677926206244087,1.5364218878749962
1.677551194799646,1.559797601245155
1.6816763206884975,1.5780481582079533
1.6516754051332134,1.5857983947264016
1.6445501876888333,1.5930486159855952
1.660925687429426,1.5996738181707206
1.680676290169988,1.6009238563188575
1.6898015686513872,1.5976737571337016
1.6844264046143986,1.6051739860225227
1.683926389355144,1.6196744285409101
1.6801762749107334,1.6380499893185219
1.6763011566515091,1.6266746421704763
1.6785512253181556,1.606174016541032
1.6794262520218513,1.6055489974669637
1.6901765800958282,1.60542399365215
1.700551896725364,1.5980487685781428
1.6968017822809534,1.5874234443189794
1.6810513016144293,1.5762981048005615
1.6758011413922544,1.5665478072450942
1.6840513931699574,1.5594225898007141
1.6949267250587483,1.5655477767265848
1.6768011719107638,1.5851733756523332
1.662925748466445,1.587298440504166
1.6590506302072208,1.578923184911649
1.66717587817011,1.5682978606524856
1.681551316873684,1.5465471968749047
1.702176946317942,1.5225464644306772
1.7143023163548692,1.5176713156529436
1.702926969206824,1.5211714224677266
1.675676137577441,1.5254215521713919
1.6975518051698355,1.528171636097293
1.7526784875026704,1.5231714835047456
1.739303079317606,1.5171713003936889
1.7165523850215156,1.5059209570604573
1.6955517441328165,1.5039208960234383
1.6773011871700187,1.5110461134678184
1.6640507827997681,1.5232964873195594
1.6709259926145208,1.5227964720603047
1.7008019043549913,1.5092960600604266
1.74180315561388,1.4986707358012636
1.7645538499099704,1.501170812097537
1.7271777092806788,1.518296334727012
1.701301919614246,1.5387969603564562
1.7338029114658042,1.5665478072450942
1.8280557878353223,1.587923459578234
1.9130583819086275,1.6102991424298836
1.8643068941312906,1.6267996459852903
1.7938047425763726,1.633674855800043
1.723552598651082,1.6396750389110997
1.7204275032807397,1.6429251380962555
1.7590536820581684,1.6337998596148564
1.796054811243019,1.6197994323557239
1.81543040253914,1.6041739555040133
1.8314308908352916,1.6022988982818078
1.8368060548722802,1.6095491195410014
1.8348059938352612,1.6152992950224312
1.8278057802056948,1.6179243751335184
1.8250556962797937,1.6215494857631152
1.855056611835078,1.6339248634296701
1.9099332865382854,1.643925168614765
1.8546816003906368,1.652550431836909
1.7736791283913693,1.6559255348368787
1.7149273354289376,1.6586756187627796
1.6949267250587483,1.6623007293923764
1.7183024384289072,1.652550431836909
1.7669289223914304,1.6354249092074344
1.8354310129093294,1.6244245735038303
1.811805291909543,1.6415500961333047
1.702176946317942,1.6701759697256386
1.6666758629108556,1.684676412244026
1.7003018890957367,1.6964267708365124
1.7478033387249368,1.7106772057252724
1.7038019959105197,1.7165523850215156
1.6611756950590533,1.710052186651204
1.658550614947966,1.7118022400585957
1.6811763054292428,1.7370530106509599
1.668050904873806,1.7549285561693166
1.6528004394665363,1.7498033997619558
1.668800927762688,1.7406781212805567
1.6926766563921019,1.7434282052064578
1.679926267281106,1.755178563798944
1.655425519577624,1.7596787011322368
1.6405500656147955,1.7488033692434461
1.633674855800043,1.735302957243568
1.6536754661702324,1.7224275643177587
1.6895515610217597,1.7254276558732873
1.6950517288735618,1.7424281746879482
1.6197994323557239,1.7444282357249672
1.5885484786523028,1.7336779076509903
1.596798730430006,1.7209275185399944
1.6076740623187964,1.7166773888363294
1.6004238410596028,1.7090521561326946
1.5931736198004092,1.702551957762383
1.579673207800531,1.699301858577227
1.5750480666524247,1.7000518814661092
1.5806732383190405,1.706052064577166
1.5914235663930174,1.7159273659474472
1.5810482497634815,1.7224275643177587
1.5729230018005922,1.734552934354686
1.5871734366893522,1.745678273873104
1.6059240089114046,1.7473033234656818
1.6184243903927733,1.7434282052064578
1.6151742912076175,1.7473033234656818
1.6150492873928037,1.7510534379100926
1.6162993255409406,1.7576786400952178
1.6325498214667196,1.769929013946959
1.6092991119113744,1.7873045442060609
1.5639227271340068,1.7926797082430495
1.5707979369487595,1.792054689168981
1.599548814355907,1.7875545518356883
1.6047989745780817,1.7794293038727989
1.5877984557634206,1.775804193243202
1.6116741843928344,1.776679219946898
1.6513003936887722,1.7894296090578936
1.6179243751335184,1.800804956205939
1.5472972197637866,1.8025550096133305
1.5506723227637564,1.7993049104281746
1.5825482955412458,1.7965548265022737
1.5849233680227057,1.7804293343913085
1.5869234290597247,1.7561785943174535
1.596298715170751,1.737303018280587
1.5936736350596639,1.7284277474288157
1.5834233222449416,1.7296777855769523
1.5696729026154363,1.719552476577044
1.5959237037263099,1.7094271675771355
1.630049745170446,1.7186774498733484
1.5869234290597247,1.7273027130954923
1.5125461592455824,1.7153023468733786
1.4915455183568835,1.6936766869106112
1.5174213080233163,1.6931766716513565
1.5561724906155583,1.6946767174291208
1.6015488753929257,1.6876765037995543
1.6111741691335797,1.6880515152439954
1.6186743980224005,1.6889265419476913
1.6045489669484543,1.6898015686513872
1.5936736350596639,1.6773011871700187
1.58404834131901,1.671301004058962
1.55079732657857,1.6721760307626576
1.5480472426526688,1.6794262520218513
1.5741730399487288,1.6725510422070986
1.6036739402447586,1.660550675984985
1.5970487380596332,1.6560505386516924
1.5847983642078922,1.6539254737998597
1.5892985015411847,1.6616757103183082
1.60304892117069,1.6666758629108556
1.6297997375408186,1.6530504470961638
1.652550431836909,1.6420501113925596
1.6411750846888638,1.6541754814294871
1.6277996765037996,1.6631757560960723
1.629299722281564,1.6608006836146123
1.6266746421704763,1.6445501876888333
1.6065490279854733,1.6365499435407576
1.6059240089114046,1.644675191503647
1.6104241462446975,1.6563005462813196
1.633549851985229,1.6441751762443924
1.670050965910825,1.6376749778740807
1.6785512253181556,1.6481752983184301
1.6325498214667196,1.6619257179479354
1.6152992950224312,1.6603006683553576
1.6199244361705374,1.6456752220221567
1.6408000732444226,1.632424817651906
1.658925626392407,1.6299247413556321
1.6726760460219123,1.6361749320963164
1.6875514999847407,1.628049684133427
1.6990518509475998,1.6195494247260964
1.6591756340220343,1.6199244361705374
1.611799188207648,1.6265496383556628
1.6019238868373669,1.6370499588000123
1.6155493026520584,1.6388000122074038
1.633549851985229,1.639550035096286
1.621299478133488,1.6404250617999818
1.6184243903927733,1.635549913022248
1.6286747032074953,1.6354249092074344
1.6360499282815029,1.6354249092074344
1.6428001342814416,1.6380499893185219
1.6571755729850153,1.6404250617999818
1.6499253517258217,1.6421751152073734
1.6309247718741418,1.6415500961333047
1.629674733726005,1.6413000885036775
1.6526754356517228,1.636674947355571
1.684676412244026,1.6285496993926818
1.6774261909848323,1.6299247413556321
1.6491753288369395,1.6431751457258827
1.612174199652089,1.6616757103183082
1.6021738944669943,1.666800866725669
1.61254921109653,1.6571755729850153
1.6210494705038605,1.6464252449110386
1.6295497299111912,1.6385500045777766
1.6244245735038303,1.652550431836909
1.6259246192815942,1.668800927762688
1.644675191503647,1.6745511032441176
1.6603006683553576,1.6725510422070986
1.6686759239478743,1.6683009125034334
1.662800744651631,1.6720510269478437
1.6454252143925292,1.6753011261329998
1.6704259773552659,1.6719260231330302
1.6951767326883755,1.6699259620960112
1.6816763206884975,1.6748011108737448
1.6424251228370008,1.6801762749107334
1.6476752830591754,1.683051362651448
1.6553005157628102,1.681926328318125
1.6604256721701711,1.677551194799646
1.6728010498367258,1.6803012787255471
1.666800866725669,1.6898015686513872
1.6503003631702629,1.6896765648365732
1.6346748863185523,1.6905515915402693
1.6423001190221869,1.6911766106143375
1.6461752372814111,1.6849264198736535
1.6483003021332439,1.671301004058962
1.642675130466628,1.6645507980590228
1.6241745658742028,1.666800866725669
1.6367999511703848,1.6568005615405743
1.6454252143925292,1.6436751609851377
1.6654258247627187,1.639550035096286
1.6944267097994934,1.6425501266518143
1.7065520798364209,1.6546754966887418
1.6665508590960418,1.6571755729850153
1.5989237952818385,1.640300057985168
1.5786731772820215,1.6205494552446058
1.6044239631336406,1.6082990813928648
1.6509253822443313,1.6079240699484236
1.668800927762688,1.6112991729483932
1.667300881984924,1.616924344615009
1.6559255348368787,1.6197994323557239
1.6485503097628713,1.6166743369853815
1.6561755424665061,1.6221745048371838
1.663300759910886,1.6325498214667196
1.6606756797997986,1.625174596392712
1.6548005005035553,1.6072990508743554
1.6445501876888333,1.5895485091708121
1.6435501571703237,1.5850483718375195
1.6571755729850153,1.6024239020966218
1.6741760917996766,1.6155493026520584
1.683926389355144,1.6221745048371838
1.6491753288369395,1.618549394207587
1.6042989593188268,1.6119241920224616
1.6007988525040437,1.6021738944669943
1.628049684133427,1.6052989898373364
1.670800988799707,1.6119241920224616
1.6650508133182775,1.6245495773186438
1.630799768059328,1.627174657429731
1.6091741080965607,1.6207994628742333
1.6009238563188575,1.6211744743186742
1.6255496078371532,1.627174657429731
1.6639257789849544,1.6234245429853207
1.6728010498367258,1.6199244361705374
1.6423001190221869,1.630799768059328
1.6241745658742028,1.6414250923184912
1.6230495315408795,1.6424251228370008
1.631174779503769,1.6346748863185523
1.6254246040223395,1.6277996765037996
1.625174596392712,1.6242995696890163
1.628424695577868,1.6194244209112827
1.6456752220221567,1.6087990966521197
1.6555505233924375,1.610549150059511
1.6369249549851985,1.6177993713187049
1.6312997833185827,1.6159243140964994
1.63867500839259,1.608174077578051
1.640300057985168,1.609049104281747
1.6234245429853207,1.6196744285409101
1.6221745048371838,1.616549333170568
1.624049562059389,1.609799127170629
1.6496753440961944,1.6159243140964994
1.6603006683553576,1.6197994323557239
1.5977987609485154,1.6202994476149783
1.5900485244300668,1.6177993713187049
1.6112991729483932,1.609424115726188
1.6290497146519365,1.6036739402447586
1.6526754356517228,1.6095491195410014
1.6625507370220038,1.6265496383556628
1.6616757103183082,1.625174596392712
1.663300759910886,1.62204950102237
1.6501753593554491,1.6436751609851377
1.6423001190221869,1.6485503097628713
1.6281746879482406,1.6408000732444226
1.6339248634296701,1.6206744590594195
1.6498003479110082,1.6107991576891385
1.6626757408368176,1.6032989288003174
1.6873014923551135,1.5929236121707817
1.6726760460219123,1.5952986846522417
1.635924924466689,1.5957986999114964
1.591923581652272,1.5911735587633902
1.5881734672078616,1.5746730552079835
1.610549150059511,1.5621726737266153
1.6423001190221869,1.5537974181340983
1.6550505081331828,1.5469222083193457
1.6549255043183693,1.5392969756157109
1.6306747642445143,1.5350468459120459
1.6206744590594195,1.53654689168981
1.629674733726005,1.5426720786156805
1.6187994018372145,1.5404220099490342
1.6245495773186438,1.5191713614307079
1.6245495773186438,1.501170812097537
1.6262996307260353,1.500420789208655
1.630799768059328,1.5050459303567616
1.6254246040223395,1.4947956175420394
1.624924588763085,1.4906704916531877
1.6151742912076175,1.5050459303567616
1.6244245735038303,1.517921323282571
1.6498003479110082,1.5239215063936278
1.6701759697256386,1.5216714377269813
1.6814263130588702,1.524171514023255
1.6729260536515398,1.531671742912076
1.6544254890591144,1.5386719565416427
1.6306747642445143,1.5532974028748436
1.6312997833185827,1.5609226355784784
1.6460502334665976,1.5726729941709647
1.6476752830591754,1.5845483565782648
1.6484253059480574,1.5837983336893826
1.6464252449110386,1.5735480208746606
1.6551755119479965,1.5706729331339457
1.6389250160222175,1.5787981810968352
1.635174901577807,1.598798791467025
1.6345498825037386,1.605048982207709
1.6499253517258217,1.5972987456892607
1.6791762443922238,1.5846733603930783
1.677551194799646,1.5896735129856259
1.678676229132969,1.5952986846522417
1.6583006073183386,1.6066740318002868
1.6483003021332439,1.6285496993926818
1.668800927762688,1.6404250617999818
1.702176946317942,1.6389250160222175
1.6635507675405132,1.634299874874111
1.623299539170507,1.6219244972075564
1.63154979094821,1.6244245735038303
1.6529254432813503,1.631674794763024
1.6651758171330913,1.627674672688986
1.6675508896145512,1.6166743369853815
1.6650508133182775,1.6131742301705987
1.684301400799585,1.6250495925778985
1.708177129428999,1.6389250160222175
1.718427442243721,1.6361749320963164
1.6780512100589007,1.6317997985778374
1.6398000427259134,1.6371749626148258
1.6441751762443924,1.6445501876888333
1.677176183355205,1.6574255806146427
1.7071770989104893,1.6536754661702324
1.7079271217993715,1.6499253517258217
1.6898015686513872,1.645925229651784
1.691051606799524,1.6341748710592976
1.6908015991698966,1.630424756614887
1.6778012024292734,1.6325498214667196
1.6761761528366956,1.6299247413556321
1.6739260841700492,1.6279246803186131
1.6640507827997681,1.6345498825037386
1.6529254432813503,1.6471752677999205
1.6549255043183693,1.6529254432813503
1.6785512253181556,1.643925168614765
1.7019269386883145,1.6266746421704763
1.688301522873623,1.6236745506149481
1.6723010345774711,1.647425275429548
1.6244245735038303,1.6590506302072208
1.6190494094668417,1.6543004852443006
1.6541754814294871,1.6440501724295786
1.6516754051332134,1.6449251991332745
1.6372999664296397,1.6456752220221567
1.6458002258369702,1.6365499435407576
1.668800927762688,1.6274246650593585
1.6840513931699574,1.627674672688986
1.667675893429365,1.6346748863185523
1.6553005157628102,1.6381749931333354
1.6596756492812892,1.6361749320963164
1.662925748466445,1.6290497146519365
1.6816763206884975,1.6127992187261575
1.699301858577227,1.603173924985504
1.6281746879482406,1.6062990203558458
1.60304892117069,1.6020488906521806
1.6057990050965911,1.59829877620777
1.6289247108371228,1.5940486465041048
1.6531754509109775,1.5937986388744774
1.6634257637256997,1.6116741843928344
1.6570505691702018,1.6157993102816859
1.6468002563554796,1.6124242072817165
1.6201744438001648,1.6151742912076175
1.6204244514297923,1.6167993408001955
1.6435501571703237,1.6177993713187049
1.6211744743186742,1.6216744895779291
1.6005488448744163,1.6267996459852903
1.6154242988372447,1.6294247260963775
1.6200494399853511,1.6365499435407576
1.6205494552446058,1.63867500839259
1.6287997070223093,1.640300057985168
1.6175493636890774,1.6455502182073427
1.6182993865779596,1.651800408948027
1.6224245124668113,1.6574255806146427
1.6234245429853207,1.6564255500961331
1.6217994933927427,1.6491753288369395
1.6201744438001648,1.6506753746147038
1.6206744590594195,1.6580505996887114
1.6310497756889553,1.6549255043183693
1.6267996459852903,1.6516754051332134
1.6085490890224923,1.656925565355388
1.613799249244667,1.6616757103183082
1.6339248634296701,1.655800531022065
1.651800408948027,1.6456752220221567
1.6516754051332134,1.635174901577807
1.6230495315408795,1.6456752220221567
1.611424176763207,1.6568005615405743
1.6146742759483628,1.6590506302072208
1.611424176763207,1.6570505691702018
1.6224245124668113,1.6484253059480574
1.6267996459852903,1.642675130466628
1.6305497604297006,1.6456752220221567
1.6372999664296397,1.6504253669850764
1.651050386059145,1.6461752372814111
1.6242995696890163,1.6421751152073734
1.6116741843928344,1.637549974059267
1.6205494552446058,1.6438001647999512
1.6411750846888638,1.6555505233924375
1.6533004547257912,1.6644257942442091
1.660550675984985,1.6588006225775933
1.6698009582811977,1.6449251991332745
1.663300759910886,1.6356749168370617
1.6317997985778374,1.6377999816888944
1.6012988677632984,1.6563005462813196
1.6069240394299142,1.6690509353923155
1.620924466689047,1.6630507522812585
1.641925107577746,1.6505503707998903
1.6745511032441176,1.6418001037629322
1.6768011719107638,1.6496753440961944
1.63867500839259,1.657800592059084
1.6190494094668417,1.6523004242072816
1.6257996154667806,1.6438001647999512
1.6463002410962249,1.6435501571703237
1.6579255958738974,1.6486753135776848
1.6638007751701407,1.6409250770592365
1.6808012939848018,1.6320498062074649
1.660550675984985,1.6361749320963164
1.634299874874111,1.6394250312814722
1.6306747642445143,1.6388000122074038
1.6449251991332745,1.627674672688986
1.6634257637256997,1.6222995086519973
1.662925748466445,1.625674611651967
1.6571755729850153,1.6206744590594195
1.6564255500961331,1.6064240241706595
1.651050386059145,1.6102991424298836
1.6515504013183995,1.6345498825037386
1.6590506302072208,1.643050141911069
1.6705509811700798,1.63629993591113
1.6764261604663229,1.6176743675038912
1.6961767632068852,1.6139242530594806
1.7154273506881925,1.6214244819483017
1.6994268623920408,1.632424817651906
1.6665508590960418,1.6340498672444839
1.6408000732444226,1.625674611651967
1.6449251991332745,1.6225495162816248
1.6404250617999818,1.633674855800043
1.6394250312814722,1.643925168614765
1.6548005005035553,1.6483003021332439
1.6638007751701407,1.6454252143925292
1.6570505691702018,1.6448001953184606
1.655425519577624,1.6535504623554185
1.6669258705404828,1.6611756950590533
1.6733010650959808,1.6579255958738974
1.6579255958738974,1.663300759910886
1.6445501876888333,1.6746761070589313
1.6503003631702629,1.6743010956144901
1.6661758476516009,1.6576755882442702
1.684676412244026,1.6471752677999205
1.6781762138737144,1.6496753440961944
1.668800927762688,1.662800744651631
1.6658008362071597,1.6694259468367565
1.6549255043183693,1.6683009125034334
1.6438001647999512,1.6570505691702018
1.6684259163182469,1.6443001800592059
1.6720510269478437,1.6350498977629933
1.6523004242072816,1.6396750389110997
1.6424251228370008,1.6634257637256997
1.644675191503647,1.6796762596514787
1.6451752067629017,1.6793012482070377
1.6486753135776848,1.6734260689107945
1.6321748100222786,1.671301004058962
1.6254246040223395,1.6690509353923155
1.634424878688925,1.6670508743552965
1.6556755272072514,1.6774261909848323
1.6608006836146123,1.6858014465773492
1.6521754203924681,1.6925516525772883
1.6453002105777155,1.7004268929105502
1.6371749626148258,1.7033019806512648
1.647050263985107,1.7006769005401776
1.6810513016144293,1.6943017059846797
1.6855514389477217,1.6905515915402693
1.6588006225775933,1.689051545762505
1.64105008087405,1.6740510879848627
1.6516754051332134,1.656925565355388
1.671301004058962,1.6473002716147345
1.6669258705404828,1.6546754966887418
1.6519254127628407,1.6670508743552965
1.639550035096286,1.669300943021943
1.6440501724295786,1.6674258857997375
1.6594256416516617,1.6599256569109164
1.6773011871700187,1.6491753288369395
1.7024269539475692,1.63867500839259
1.7019269386883145,1.6369249549851985
1.6776761986144597,1.6508003784295175
1.6549255043183693,1.668800927762688
1.6631757560960723,1.6706759849848933
1.655425519577624,1.665300820947905
1.6352999053926207,1.6608006836146123
1.6289247108371228,1.662925748466445
1.6478002868739892,1.655800531022065
1.6656758323923462,1.6428001342814416
1.6804262825403606,1.6356749168370617
1.6631757560960723,1.6543004852443006
1.635549913022248,1.675176122318186
1.6215494857631152,1.6851764275032808
1.6279246803186131,1.6776761986144597
1.647050263985107,1.6540504776146734
1.6719260231330302,1.637924985503708
1.6901765800958282,1.6310497756889553
1.6729260536515398,1.6235495468001342
1.6481752983184301,1.6235495468001342
1.656925565355388,1.639925046540727
1.666050843836787,1.645050202948088
1.662925748466445,1.6420501113925596
1.667300881984924,1.627174657429731
1.6721760307626576,1.61254921109653
1.693801690725425,1.6062990203558458
1.6970517899105808,1.616924344615009
1.6924266487624744,1.6261746269112216
1.663300759910886,1.6305497604297006
1.6431751457258827,1.628049684133427
1.6504253669850764,1.6204244514297923
1.655425519577624,1.6181743827631458
1.6654258247627187,1.6244245735038303
1.6838013855403302,1.6314247871333964
1.702176946317942,1.6396750389110997
1.7148023316141239,1.638299996948149
1.6920516373180334,1.6330498367259743
1.635549913022248,1.6393000274666587
1.611424176763207,1.6566755577257606
1.6265496383556628,1.673551072725608
1.6449251991332745,1.6840513931699574
1.6556755272072514,1.685926450392163
1.6670508743552965,1.6876765037995543
1.6701759697256386,1.6915516220587787
1.6663008514664144,1.6845514084292124
1.6584256111331521,1.6714260078737755
1.6593006378368482,1.6573005767998292
1.6596756492812892,1.6540504776146734
1.6764261604663229,1.6594256416516617
1.7228025757621999,1.656550553910947
1.7510534379100926,1.6513003936887722
1.701676931058687,1.6481752983184301
1.6556755272072514,1.6488003173924985
1.6201744438001648,1.651425397503586
1.6157993102816859,1.6504253669850764
1.6340498672444839,1.647425275429548
1.6548005005035553,1.6509253822443313
1.6616757103183082,1.6601756645405439
1.6641757866145819,1.6584256111331521
1.6758011413922544,1.6485503097628713
1.6809262977996156,1.6441751762443924
1.6719260231330302,1.6423001190221869
1.6768011719107638,1.6429251380962555
1.6961767632068852,1.645925229651784
1.6968017822809534,1.6516754051332134
1.6544254890591144,1.6613006988738672
1.630049745170446,1.660550675984985
1.6282996917630543,1.651425397503586
1.6384250007629628,1.638299996948149
1.6726760460219123,1.6370499588000123
1.6925516525772883,1.6509253822443313
1.700926908169805,1.6523004242072816
1.7045520187994019,1.6509253822443313
1.6596756492812892,1.6576755882442702
1.630424756614887,1.658925626392407
1.6262996307260353,1.6539254737998597
1.647050263985107,1.6456752220221567
1.6564255500961331,1.6445501876888333
1.6764261604663229,1.637549974059267
1.7148023316141239,1.633674855800043
1.7118022400585957,1.6390500198370312
1.6750511185033723,1.6416750999481187
1.6257996154667806,1.643050141911069
1.6067990356151007,1.6475502792443617
1.6120491958372754,1.6543004852443006
1.633549851985229,1.6485503097628713
1.649050325022126,1.6341748710592976
1.6544254890591144,1.6332998443556017
1.6559255348368787,1.6471752677999205
1.6516754051332134,1.6579255958738974
1.6638007751701407,1.6574255806146427
1.6966767784661398,1.6506753746147038
1.702176946317942,1.656550553910947
1.6634257637256997,1.6654258247627187
1.6164243293557543,1.6683009125034334
1.6035489364299447,1.669175939207129
1.62204950102237,1.660550675984985
1.6443001800592059,1.654550492873928
1.6621757255775629,1.6496753440961944
1.668800927762688,1.6405500656147955
1.6778012024292734,1.6314247871333964
1.6789262367625966,1.6350498977629933
1.6709259926145208,1.6480502945036166
1.684301400799585,1.6479252906888027
1.697426801355022,1.6396750389110997
1.6704259773552659,1.6361749320963164
1.629674733726005,1.6345498825037386
1.618924405652028,1.6347998901333658
1.6230495315408795,1.637924985503708
1.64105008087405,1.6428001342814416
1.6620507217627492,1.6384250007629628
1.6788012329477828,1.6337998596148564
1.6743010956144901,1.644675191503647
1.6549255043183693,1.6591756340220343
1.6443001800592059,1.657800592059084
1.645925229651784,1.6556755272072514
1.6435501571703237,1.6559255348368787
1.6374249702444532,1.6555505233924375
1.6461752372814111,1.6453002105777155
1.6744260994293039,1.635549913022248
1.6768011719107638,1.6455502182073427
1.660925687429426,1.655800531022065
1.6495503402813807,1.6471752677999205
1.6593006378368482,1.6438001647999512
1.6461752372814111,1.6579255958738974
1.6332998443556017,1.6576755882442702
1.637549974059267,1.6347998901333658
1.653425458540605,1.6215494857631152
1.6530504470961638,1.6339248634296701
1.6710509964293345,1.6586756187627796
1.6596756492812892,1.6666758629108556
1.6515504013183995,1.6599256569109164
1.6619257179479354,1.6453002105777155
1.6838013855403302,1.631174779503769
1.6964267708365124,1.636674947355571
1.6745511032441176,1.649425336466567
1.6438001647999512,1.6568005615405743
1.6438001647999512,1.6559255348368787
1.6591756340220343,1.6484253059480574
1.6719260231330302,1.634424878688925
1.6661758476516009,1.6365499435407576
1.6530504470961638,1.6536754661702324
1.6551755119479965,1.6596756492812892
1.666425855281228,1.6498003479110082
1.6835513779107028,1.639925046540727
1.6896765648365732,1.6365499435407576
1.679926267281106,1.628424695577868
1.6570505691702018,1.6286747032074953
1.6544254890591144,1.6443001800592059
1.6501753593554491,1.6599256569109164
1.6445501876888333,1.6513003936887722
1.6733010650959808,1.6394250312814722
1.6774261909848323,1.643925168614765
1.6618007141331217,1.6526754356517228
1.6449251991332745,1.6548005005035553
1.6455502182073427,1.6524254280220954
1.673676076540422,1.6495503402813807
1.677176183355205,1.6523004242072816
1.6704259773552659,1.6530504470961638
1.6616757103183082,1.6484253059480574
1.6625507370220038,1.6416750999481187
1.6624257332071901,1.6445501876888333
1.651050386059145,1.644675191503647
1.6504253669850764,1.6367999511703848
1.6595506454664755,1.630424756614887
1.6720510269478437,1.6371749626148258
1.679551255836665,1.6413000885036775
1.6721760307626576,1.6340498672444839
1.6625507370220038,1.6222995086519973
1.660925687429426,1.6079240699484236
1.6855514389477217,1.6005488448744163
1.6881765190588092,1.6042989593188268
1.6766761680959503,1.626424634540849
1.6828013550218206,1.6471752677999205
1.6556755272072514,1.6485503097628713
1.6433001495406965,1.6279246803186131
1.6349248939481797,1.6066740318002868
1.634299874874111,1.601173863948485
1.6593006378368482,1.610549150059511
1.6803012787255471,1.6259246192815942
1.684301400799585,1.6349248939481797
1.675176122318186,1.628424695577868
1.6561755424665061,1.6202994476149783
1.6479252906888027,1.6152992950224312
1.651425397503586,1.620924466689047
1.6675508896145512,1.628424695577868
1.6908015991698966,1.6317997985778374
1.6840513931699574,1.6393000274666587
1.643050141911069,1.6404250617999818
1.6261746269112216,1.6327998290963468
1.6337998596148564,1.629674733726005
1.647050263985107,1.6250495925778985
1.664925809503464,1.6180493789483323
1.6728010498367258,1.6129242225409712
1.6651758171330913,1.6057990050965911
1.6683009125034334,1.5976737571337016
1.6726760460219123,1.5939236426892909
1.6469252601702933,1.6056740012817774
1.6305497604297006,1.6115491805780204
1.6479252906888027,1.6057990050965911
1.6561755424665061,1.6007988525040437
1.667675893429365,1.6016738792077396
1.6503003631702629,1.6024239020966218
1.6515504013183995,1.599173802911466
1.6685509201330608,1.5931736198004092
1.6809262977996156,1.5952986846522417
1.6845514084292124,1.6131742301705987
1.6670508743552965,1.6301747489852596
1.6506753746147038,1.630424756614887
1.6560505386516924,1.6156743064668722
1.6616757103183082,1.61492428357799
1.664925809503464,1.642675130466628
1.6564255500961331,1.660550675984985
1.6471752677999205,1.6591756340220343
1.6528004394665363,1.660550675984985
1.658925626392407,1.6718010193182167
1.651050386059145,1.686676473281045
1.647425275429548,1.6773011871700187
1.6709259926145208,1.6505503707998903
1.6984268318735312,1.6408000732444226
1.6915516220587787,1.6576755882442702
1.6586756187627796,1.6719260231330302
1.6415500961333047,1.6689259315775018
1.6593006378368482,1.6564255500961331
1.6591756340220343,1.6521754203924681
1.6669258705404828,1.6461752372814111
1.6610506912442398,1.6290497146519365
1.6393000274666587,1.625174596392712
1.6340498672444839,1.627299661244545
1.6535504623554185,1.63154979094821
1.652550431836909,1.622924527726066
1.6418001037629322,1.6056740012817774
1.6413000885036775,1.6100491348002564
1.6465502487258523,1.6312997833185827
1.6371749626148258,1.642675130466628
1.624049562059389,1.6364249397259438
1.6325498214667196,1.6164243293557543
1.6506753746147038,1.609424115726188
1.6710509964293345,1.6207994628742333
1.6836763817255165,1.636674947355571
1.6606756797997986,1.6444251838740198
1.6444251838740198,1.636674947355571
1.651800408948027,1.6314247871333964
1.6503003631702629,1.6434251533555102
1.634424878688925,1.6528004394665363
1.6302997528000733,1.651800408948027
1.6265496383556628,1.656925565355388
1.6346748863185523,1.6638007751701407
1.6433001495406965,1.666050843836787
1.6544254890591144,1.6595506454664755
1.6626757408368176,1.6451752067629017
1.6646758018738366,1.643925168614765
1.6550505081331828,1.6509253822443313
1.63629993591113,1.656925565355388
1.627174657429731,1.655800531022065
1.6376749778740807,1.656550553910947
1.6619257179479354,1.6549255043183693
1.6856764427625355,1.6458002258369702
1.6878015076143682,1.6390500198370312
1.6579255958738974,1.6396750389110997
1.625674611651967,1.6415500961333047
1.6170493484298227,1.6435501571703237
1.6237995544297616,1.6334248481704154
1.6246745811334575,1.6227995239112523
1.6181743827631458,1.6259246192815942
1.629299722281564,1.6384250007629628
1.6511753898739585,1.6484253059480574
1.6560505386516924,1.6455502182073427
1.6681759086886196,1.6340498672444839
1.685926450392163,1.6294247260963775
1.6715510116885892,1.644675191503647
1.6310497756889553,1.655425519577624
1.620924466689047,1.6418001037629322
1.6317997985778374,1.6275496688741722
1.6473002716147345,1.6349248939481797
1.666800866725669,1.6433001495406965
1.6511753898739585,1.6483003021332439
1.6245495773186438,1.6481752983184301
1.63629993591113,1.645925229651784
1.6908015991698966,1.6374249702444532
1.706052064577166,1.6326748252815333
1.6559255348368787,1.6394250312814722
1.6092991119113744,1.6488003173924985
1.6077990661336101,1.643925168614765
1.6389250160222175,1.6281746879482406
1.6684259163182469,1.6231745353556932
1.6809262977996156,1.6332998443556017
1.6780512100589007,1.647050263985107
1.6503003631702629,1.6456752220221567
1.6350498977629933,1.6302997528000733
1.6473002716147345,1.6156743064668722
1.6603006683553576,1.6072990508743554
1.6650508133182775,1.6034239326151312
1.6650508133182775,1.5949236732078005
1.6741760917996766,1.5894235053559984
1.6790512405774103,1.6025489059114353
1.677926206244087,1.6109241615039522
1.6610506912442398,1.6102991424298836
1.6424251228370008,1.6069240394299142
1.6658008362071597,1.59829877620777
1.6764261604663229,1.594298654133732
1.6641757866145819,1.6017988830225531
1.6636757713553272,1.6111741691335797
1.6616757103183082,1.6065490279854733
1.6425501266518143,1.5990487990966522
1.6428001342814416,1.6037989440595721
1.651800408948027,1.6259246192815942
1.655800531022065,1.6371749626148258
1.6521754203924681,1.635174901577807
1.643050141911069,1.6320498062074649
1.6496753440961944,1.6325498214667196
1.6513003936887722,1.631174779503769
1.647425275429548,1.631174779503769
1.640300057985168,1.627299661244545
1.6503003631702629,1.6310497756889553
1.6749261146885588,1.635924924466689
1.6748011108737448,1.6389250160222175
1.642675130466628,1.6394250312814722
1.6376749778740807,1.632424817651906
1.6436751609851377,1.6167993408001955
1.6511753898739585,1.6187994018372145
1.666425855281228,1.6262996307260353
1.6644257942442091,1.6299247413556321
1.6356749168370617,1.634424878688925
1.6270496536149175,1.632299813837092
1.6453002105777155,1.6242995696890163
1.6641757866145819,1.62204950102237
1.6611756950590533,1.630424756614887
1.6508003784295175,1.6345498825037386
1.6543004852443006,1.624924588763085
1.6489253212073123,1.6270496536149175
1.6262996307260353,1.6435501571703237
1.6297997375408186,1.652550431836909
1.6347998901333658,1.6441751762443924
1.647425275429548,1.6310497756889553
1.6560505386516924,1.630424756614887
1.6398000427259134,1.635549913022248
1.608174077578051,1.6401750541703544
1.6005488448744163,1.6411750846888638
1.6099241309854426,1.6396750389110997
1.6365499435407576,1.634299874874111
1.6489253212073123,1.625299600207526
1.631174779503769,1.61017413861507
1.6246745811334575,1.6016738792077396
1.6339248634296701,1.6027989135410627
1.6468002563554796,1.6042989593188268
1.651425397503586,1.6016738792077396
1.6516754051332134,1.601173863948485
1.6231745353556932,1.5994238105410932
1.6142992645039216,1.5900485244300668
1.618549394207587,1.5944236579485458
1.6320498062074649,1.6022988982818078
1.6425501266518143,1.6009238563188575
1.6499253517258217,1.5949236732078005
1.655425519577624,1.5836733298745689
1.6438001647999512,1.5784231696523943
1.6454252143925292,1.5954236884670552
1.6448001953184606,1.616924344615009
1.643925168614765,1.6314247871333964
1.6340498672444839,1.6389250160222175
1.6352999053926207,1.6349248939481797
1.640300057985168,1.6227995239112523
1.6449251991332745,1.6204244514297923
1.649425336466567,1.624924588763085
1.6580505996887114,1.627299661244545
1.6679259010589922,1.6321748100222786
1.6550505081331828,1.6441751762443924
1.625174596392712,1.6560505386516924
1.6200494399853511,1.6560505386516924
1.637549974059267,1.6394250312814722
1.679551255836665,1.6269246498001038
1.6961767632068852,1.637924985503708
1.66717587817011,1.6436751609851377
1.632424817651906,1.6394250312814722
1.6227995239112523,1.6413000885036775
1.6521754203924681,1.638299996948149
1.6893015533921325,1.6281746879482406
1.6340498672444839,1.6275496688741722
1.6080490737632376,1.630799768059328
1.6227995239112523,1.632299813837092
1.6413000885036775,1.6181743827631458
1.6619257179479354,1.6146742759483628
1.660550675984985,1.627174657429731
1.6720510269478437,1.632424817651906
1.6928016602069156,1.6337998596148564
1.6995518662068545,1.6372999664296397
1.6804262825403606,1.6394250312814722
1.6496753440961944,1.6396750389110997
1.6376749778740807,1.63629993591113
1.6453002105777155,1.6357999206518754
1.6641757866145819,1.6443001800592059
1.662925748466445,1.6555505233924375
1.6566755577257606,1.659800653096103
1.6645507980590228,1.6619257179479354
1.6546754966887418,1.6684259163182469
1.6584256111331521,1.6741760917996766
1.6683009125034334,1.666425855281228
1.6704259773552659,1.6531754509109775
1.647425275429548,1.6553005157628102
1.6197994323557239,1.6785512253181556
1.6225495162816248,1.6936766869106112
1.6454252143925292,1.6828013550218206
1.6670508743552965,1.6535504623554185
1.6781762138737144,1.6384250007629628
1.6760511490218817,1.640300057985168
1.6476752830591754,1.640675069429609
1.6106741538743248,1.6393000274666587
1.61254921109653,1.63867500839259
1.6146742759483628,1.6479252906888027
1.6398000427259134,1.6484253059480574
1.652550431836909,1.6425501266518143
1.6319248023926511,1.6352999053926207
1.624049562059389,1.630049745170446
1.6321748100222786,1.630424756614887
1.643925168614765,1.635549913022248
1.6536754661702324,1.632424817651906
1.6573005767998292,1.628049684133427
1.6615507065034945,1.6350498977629933
1.669300943021943,1.6421751152073734
1.6588006225775933,1.6486753135776848
1.6615507065034945,1.6496753440961944
1.6789262367625966,1.6504253669850764
1.670800988799707,1.6564255500961331
1.6429251380962555,1.6540504776146734
1.660925687429426,1.6601756645405439
1.647050263985107,1.6741760917996766
1.6255496078371532,1.683051362651448
1.6287997070223093,1.6828013550218206
1.6408000732444226,1.6739260841700492
1.6408000732444226,1.6743010956144901
1.644675191503647,1.6729260536515398
1.6524254280220954,1.6740510879848627
1.6718010193182167,1.6679259010589922
1.688301522873623,1.6571755729850153
1.6561755424665061,1.6601756645405439
1.6227995239112523,1.6715510116885892
1.6244245735038303,1.6714260078737755
1.633674855800043,1.6586756187627796
1.651425397503586,1.6521754203924681
1.668800927762688,1.6529254432813503
1.6623007293923764,1.6491753288369395
1.649050325022126,1.6409250770592365
1.6429251380962555,1.630799768059328
1.6528004394665363,1.6262996307260353
1.6484253059480574,1.6312997833185827
1.62917471846675,1.642675130466628
1.6217994933927427,1.6533004547257912
1.624924588763085,1.6580505996887114
1.638299996948149,1.657800592059084
1.647425275429548,1.6590506302072208
1.6404250617999818,1.6590506302072208
1.6476752830591754,1.6496753440961944
1.664925809503464,1.6453002105777155
1.6790512405774103,1.6600506607257304
1.645925229651784,1.6784262215033416
1.6274246650593585,1.689051545762505
1.6286747032074953,1.6893015533921325
1.629299722281564,1.6820513321329387
1.6391750236518448,1.6785512253181556
1.6346748863185523,1.6796762596514787
1.6151742912076175,1.6791762443922238
1.6131742301705987,1.668800927762688
1.630799768059328,1.6611756950590533
1.635174901577807,1.6661758476516009
1.6312997833185827,1.6698009582811977
1.6182993865779596,1.6678008972441787
1.6289247108371228,1.6624257332071901
1.6498003479110082,1.6626757408368176
1.6640507827997681,1.6686759239478743
1.6743010956144901,1.667300881984924
1.6645507980590228,1.6588006225775933
1.6448001953184606,1.658550614947966
1.645050202948088,1.6679259010589922
1.6339248634296701,1.6719260231330302
1.6405500656147955,1.6643007904293954
1.6415500961333047,1.6625507370220038
1.6456752220221567,1.671176000244148
1.6784262215033416,1.683051362651448
1.6655508285775322,1.6851764275032808
1.6337998596148564,1.6766761680959503
1.6270496536149175,1.6705509811700798
1.6246745811334575,1.66480080568865
1.6302997528000733,1.6644257942442091
1.6369249549851985,1.6651758171330913
1.6656758323923462,1.6684259163182469
1.7093021637623218,1.6750511185033723
1.6928016602069156,1.6784262215033416
1.649050325022126,1.670800988799707
1.6161743217261269,1.660925687429426
1.6007988525040437,1.6709259926145208
1.6084240852076785,1.6976768089846492
1.6330498367259743,1.7079271217993715
1.6475502792443617,1.6923016449476609
1.6529254432813503,1.6765511642811366
1.6583006073183386,1.673176061281167
1.6626757408368176,1.6790512405774103
1.668050904873806,1.6851764275032808
1.664925809503464,1.681551316873684
1.6658008362071597,1.6701759697256386
1.6635507675405132,1.6654258247627187
1.6630507522812585,1.6536754661702324
1.6631757560960723,1.6464252449110386
1.6724260383922849,1.6513003936887722
1.6810513016144293,1.6593006378368482
1.6714260078737755,1.6551755119479965
1.6616757103183082,1.6356749168370617
1.6574255806146427,1.632424817651906
1.6345498825037386,1.6595506454664755
1.6161743217261269,1.6758011413922544
1.6226745200964385,1.6681759086886196
1.6261746269112216,1.656925565355388
1.6405500656147955,1.6435501571703237
1.6634257637256997,1.6320498062074649
1.6746761070589313,1.6275496688741722
1.6744260994293039,1.635174901577807
1.6679259010589922,1.6486753135776848
1.6504253669850764,1.6556755272072514
1.6350498977629933,1.6584256111331521
1.6418001037629322,1.658925626392407
1.645050202948088,1.6613006988738672
1.6521754203924681,1.651425397503586
1.662925748466445,1.643925168614765
1.663300759910886,1.6289247108371228
1.6441751762443924,1.6325498214667196
1.6346748863185523,1.6568005615405743
1.6414250923184912,1.6666758629108556
1.651800408948027,1.6604256721701711
1.6620507217627492,1.656550553910947
1.6599256569109164,1.6773011871700187
1.6465502487258523,1.679926267281106
1.6360499282815029,1.6573005767998292
1.6421751152073734,1.6377999816888944
1.6519254127628407,1.6274246650593585
1.6620507217627492,1.6341748710592976
1.6630507522812585,1.6476752830591754
1.6604256721701711,1.6495503402813807
1.6443001800592059,1.6505503707998903
1.6385500045777766,1.6511753898739585
1.6408000732444226,1.6346748863185523
1.6563005462813196,1.6201744438001648
1.6661758476516009,1.6207994628742333
1.6666758629108556,1.6380499893185219
1.6651758171330913,1.6536754661702324
1.6719260231330302,1.6226745200964385
1.671676015503403,1.5901735282448806
1.6743010956144901,1.5876734519486069
1.6774261909848323,1.6052989898373364
1.6724260383922849,1.6204244514297923
1.6626757408368176,1.6199244361705374
1.6529254432813503,1.6196744285409101
1.6546754966887418,1.633549851985229
1.6523004242072816,1.6408000732444226
1.6616757103183082,1.6327998290963468
1.673176061281167,1.6349248939481797
1.6611756950590533,1.6519254127628407
1.6591756340220343,1.6314247871333964
1.6689259315775018,1.5724229865413375
1.6750511185033723,1.5249215369121372
1.6718010193182167,1.539671987060152
1.669300943021943,1.55554747154149
1.666800866725669,1.5436721091341898
1.6654258247627187,1.5216714377269813
1.6666758629108556,1.500045777764214
1.663300759910886,1.4469191564683983
1.6571755729850153,1.389542405468917
1.6371749626148258,1.3790420850245675
1.6285496993926818,1.3630415967284157
1.6431751457258827,1.341915952024903
1.6443001800592059,1.318165227210303
1.653800469985046,1.2055367900631733
1.658550614947966,1.1012836085085604
1.6360499282815029,1.088408215582751
1.6274246650593585,1.1052837305825984
1.627299661244545,1.0476569719534898
1.630799768059328,1.0300314340647603
1.6384250007629628,1.0370316476943264
1.6484253059480574,0.988155156102176
1.6171743522446362,0.9254032410657064
1.6120491958372754,0.9146529129917295
1.6109241615039522,0.9559041718802453
1.6418001037629322,1.0007805413983581
1.6581756035035249,1.0185310831019012
1.680676290169988,0.9506540116580706
1.669675954466384,0.9906552323984497
1.675176122318186,0.9000274666585284
1.697801812799463,0.7861489913632618
1.7158023621326335,0.7893990905484176
1.717552415540025,0.8425257118442335
1.715552354503006,0.9202780846583453
1.7236776024658955,0.9801549119541002
1.7356779686880093,1.012780907620472
1.7229275795770134,1.01340592669454
1.719927488021485,0.9906552323984497
1.7258026673177282,1.0272813501388591
1.750428418836024,1.0489070101016267
1.772179082613605,1.0651575060274057
1.778179265724662,1.0724077272865995
1.769929013946959,1.0497820368053223
1.775429181798761,1.0642824793237098
1.7935547349467453,1.0896582537308879
1.8319309060945466,1.0604073610644857
1.8501814630573443,1.0496570329905088
1.8609317911313212,1.0580322885830256
1.8613068025757622,1.0419067964720603
1.8648069093905455,1.0215311746574298
1.8545565965758233,1.0100308236945708
1.8346809900204473,1.0152809839167456
1.8268057496871855,1.0489070101016267
1.8358060243537706,1.0865331583605458
1.8343059785760063,1.1039086886196479
1.8218055970946379,1.1261593676564836
1.7968048341319012,1.1485350505081333
1.7603037202063052,1.1347846308786278
1.7610537430951874,1.0469069490646077
1.7713040559099094,1.0587823114719077
1.7515534531693473,1.1195341654713584
1.721927549058504,1.1801610156559954
1.7135522934659873,1.2062868129520554
1.7064270760216071,1.2449129917294839
1.7059270607623525,1.2536632587664418
1.7121772515030367,1.2572883693960386
1.7003018890957367,1.2546632892849514
1.7019269386883145,1.1836611224707785
1.6976768089846492,1.1662855922116764
1.6865514694662314,1.1936614276558732
1.6695509506515702,1.2507881710257271
1.6491753288369395,1.306789880062258
1.6504253669850764,1.3636666158024844
1.6590506302072208,1.3452910550248727
1.6560505386516924,1.322540360728782
1.6330498367259743,1.3336657002471999
1.629299722281564,1.3599165013580736
1.6247995849482713,1.3692917874691002
1.6151742912076175,1.3846672566911833
1.6127992187261575,1.3992927030243845
1.611799188207648,1.4230434278389843
1.6095491195410014,1.455669423505356
1.6191744132816552,1.480295175023652
1.6204244514297923,1.4680448011719107
1.634424878688925,1.5352968535416731
1.6346748863185523,1.5260465712454605
1.6529254432813503,1.3892923978392897
1.6568005615405743,1.3175402081362348
1.638299996948149,1.3457910702841274
1.6297997375408186,1.395917600024415
1.6226745200964385,1.4511692861720633
1.6221745048371838,1.4769200720236824
1.623299539170507,1.455669423505356
1.630424756614887,1.4825452436902982
1.6247995849482713,1.4987957396160771
1.626049623096408,1.5310467238380079
1.6129242225409712,1.5612976470229194
1.606174016541032,1.574923062837611
1.6126742149113438,1.6106741538743248
1.6231745353556932,1.6302997528000733
1.626424634540849,1.6495503402813807
1.6302997528000733,1.6139242530594806
1.6347998901333658,1.6219244972075564
1.6528004394665363,1.6483003021332439
1.6670508743552965,1.682676351207007
1.6453002105777155,1.723927610095523
1.6199244361705374,1.755553575243385
1.6210494705038605,1.7539285256508073
1.6242995696890163,1.704177007354961
1.6595506454664755,1.6455502182073427
1.6821763359477524,1.5427970824304942
1.6931766716513565,1.4637946714682455
1.6911766106143375,1.4282935880611591
1.6686759239478743,1.4667947630237739
1.6400500503555409,1.5176713156529436
1.6182993865779596,1.5696729026154363
1.6072990508743554,1.6828013550218206
1.5564224982451857,1.929933896908475
1.5254215521713919,2.0403122653889585
1.5211714224677266,2.0180615863521227
1.516296273689993,2.0766883754997405
1.5140462050233467,2.2681942197943052
1.5195463728751488,2.3778225653859066
1.5109211096530044,2.3879478743858153
1.4985457319864497,2.3289460737937557
1.508421033356731,2.149065584276864
1.5354218573564866,2.000561052278207
1.5700479140598773,1.9440593279824212
1.5737980285042878,1.9421842707602162
1.5449221472823267,1.9974359569078648
1.544422132023072,2.0826885586107977
1.5624226813562427,2.008311288796655
1.572547990356151,1.9801854304635762
1.5462971892452775,2.0025611133152257
1.5397969908749656,1.882307443464461
1.5474222235786004,1.855056611835078
1.5665478072450942,1.8648069093905455
1.5727979979857785,1.923558702352977
1.5764231086153753,1.98031043427839
1.588423474837489,2.008311288796655
1.5972987456892607,1.9829355143894771
1.6036739402447586,1.9420592669454024
1.6176743675038912,1.9280588396862697
1.635549913022248,1.9130583819086275
1.6555505233924375,1.85818170720542
1.6614257026886807,1.8318059022797326
1.6655508285775322,1.8613068025757622
1.6564255500961331,1.9006830042420728
1.685926450392163,1.8338059633167516
1.7006769005401776,1.8248056886501665
1.7043020111697744,1.8226806237983337
1.7258026673177282,1.8175554673909728
1.7355529648731955,1.8359310281685843
1.7130522782067326,1.920808618427076
1.6896765648365732,1.8744322031311993
1.677551194799646,1.8326809289834285
1.6550505081331828,1.8633068636127812
1.6690509353923155,1.902558061464278
1.6750511185033723,1.988560686056093
1.6784262215033416,2.039187231055635
1.6821763359477524,1.9926858119449447
1.704927030243843,1.9184335459456159
1.707677114169744,1.897432905056917
1.6975518051698355,1.9380591448713644
1.6960517593920712,1.9626848963896604
1.6931766716513565,1.960434827723014
1.6944267097994934,1.9653099765007476
1.6946767174291208,1.9703101290932952
1.6769261757255778,1.9510595416119878
1.6448001953184606,1.9564347056489761
1.6319248023926511,1.9796854152043213
1.6405500656147955,1.9864356212042604
1.651050386059145,2.003186132389294
1.66480080568865,2.0090613116855374
1.6793012482070377,1.9654349803155615
1.6856764427625355,2.0275618762779626
1.6808012939848018,2.002811120944853
1.7070520950956756,1.9140584124271371
1.7134272896511735,1.882807458723716
1.6874264961699272,1.9079332255012664
1.6824263435773796,1.9609348429822688
1.6949267250587483,1.98031043427839
1.7138023010956145,1.9849355754264961
1.7216775414288765,1.9986859950560016
1.7375530259102145,1.939434186834315
1.7440532242805262,1.948934476760155
1.733052888576922,1.9951858882412183
1.734552934354686,1.9738102359080785
1.7526784875026704,1.9886856898709069
1.7633038117618336,1.9899357280190435
1.7701790215765862,1.9994360179448838
1.7560535905026398,2.004436170537431
1.7614287545396283,1.9278088320566424
1.769929013946959,1.8996829737235634
1.7563035981322672,1.9269338053529468
1.739303079317606,2.0198116397595145
1.7274277169103063,2.0380621967223123
1.7190524613177893,2.0115613879818106
1.738553056428724,1.9244337290566729
1.7475533310953093,1.9108083132419813
1.7329278847621081,1.9409342326120793
1.7123022553178504,1.9824354991302224
1.702176946317942,1.986560625019074
1.7026769615771966,1.9594347972045045
1.698176824243904,1.9246837366863003
1.695801751762444,1.916433484908597
1.6928016602069156,1.914933439130833
1.6836763817255165,1.9154334543900877
1.6809262977996156,1.9186835535752433
1.6893015533921325,1.9601848200933867
1.6853014313180945,1.958809778130436
1.6784262215033416,1.9303089083529161
1.663300759910886,1.9425592822046573
1.658925626392407,1.8629318521683402
1.6601756645405439,1.8643068941312906
1.6553005157628102,1.8420562150944548
1.6604256721701711,1.8473063753166297
1.6423001190221869,1.8391811273537402
1.6210494705038605,1.847181371501816
1.6005488448744163,1.864556901760918
1.6067990356151007,1.8539315775017549
1.6205494552446058,1.8025550096133305
1.61254921109653,1.8680570085757013
1.6100491348002564,1.851556505020295
1.6087990966521197,1.803930051576281
1.6025489059114353,1.7560535905026398
1.58642341380047,1.8014299752800074
1.5867984252449112,1.7908046510208442
1.5811732535782954,1.8481814020203253
1.5824232917264323,1.8888076418347728
1.592423596911527,1.8196805322428053
1.599173802911466,1.7364279915768914
1.587923459578234,1.7115522324289683
1.5709229407635732,1.741678151799066
1.5544224372081668,1.7789292886135442
1.54842225409711,1.7850544755394149
1.5451721549119541,1.7925547044282357
1.5379219336527605,1.8573066805017244
1.5387969603564562,1.8391811273537402
1.5430470900601214,1.7791792962431716
1.5476722312082278,1.7361779839472642
1.555922482985931,1.7308028199102756
1.5614226508377331,1.7613037507248146
1.5550474562822352,1.8606817835016938
1.53892196417127,1.8413061922055727
1.533671803949095,1.7965548265022737
1.5360468764305553,1.7973048493911556
1.5379219336527605,1.778554277169103
1.553547410504471,1.8166804406872767
1.5536724143192846,1.7824293954283272
1.533671803949095,1.758803674428541
1.531671742912076,1.7771792352061526
1.5287966551713614,1.8038050477614673
1.5295466780602436,1.7891796014282664
1.5342968230231637,1.8421812189092686
1.5517973570970793,1.7769292275765252
1.5627976928006837,1.7446782433545946
1.546422193060091,1.7584286629841
1.5174213080233163,1.7778042542802208
1.4949206213568529,1.7828044068727684
1.4946706137272256,1.7981798760948515
1.5079210180974763,1.8131803338724937
1.519796380504776,1.809805230872524
1.5311717276528216,1.7706790368358412
1.5317967467268898,1.780554338206122
1.5381719412823878,1.7875545518356883
1.5496722922452468,1.8255557115390486
1.542422070986053,1.8175554673909728
1.5481722464674825,1.7589286782433546
1.5382969450972015,1.7684289681691947
1.553922421948912,1.790929654835658
1.5760480971709343,1.76792895290994
1.5744230475783563,1.7809293496505632
1.5709229407635732,1.7914296700949126
1.5817982726523636,1.7653038727988526
1.5739230323191016,1.7428031861323894
1.5776731467635121,1.7666789147618032
1.5570475173192542,1.8115552842799159
1.56029761650441,1.8426812341685233
1.56742283394879,1.8533065584276864
1.563797723319193,1.7501784112063965
1.5726729941709647,1.7221775566881314
1.5827983031708732,1.7495533921323283
1.5859233985412151,1.7749291665395062
1.5837983336893826,1.810305246131779
1.583298318430128,1.813430341502121
1.5831733146153144,1.8120552995391705
1.5925486007263405,1.7906796472060307
1.6071740470595417,1.7921796929837945
1.6047989745780817,1.81305533005768
1.5835483260597554,1.8560566423535876
1.5747980590227975,1.824555681020539
1.588048463393048,1.7705540330210272
1.6027989135410627,1.7638038270210883
1.6051739860225227,1.774304147465438
1.5869234290597247,1.8656819360942412
1.5737980285042878,1.8821824396496476
1.57454805139317,1.8094302194280831
1.5834233222449416,1.8306808679464095
1.5882984710226753,1.809180211798456
1.596798730430006,1.7883045747245705
1.6019238868373669,1.7851794793542284
1.6067990356151007,1.790929654835658
1.5956736960966826,1.8109302652058474
1.588048463393048,1.8543065889461958
1.597173741874447,1.8131803338724937
1.613799249244667,1.8088052003540147
1.6182993865779596,1.8545565965758233
1.6174243598742637,1.799554918057802
1.6025489059114353,1.7446782433545946
1.5839233375041963,1.76080373546556
1.5875484481337934,1.7835544297616506
1.5914235663930174,1.8204305551316875
1.590798547318949,1.8580567033906066
1.603173924985504,1.8030550248725852
1.595173680837428,1.7973048493911556
1.6140492568742943,1.7878045594653156
1.5981737723929563,1.8033050325022126
1.5871734366893522,1.8278057802056948
1.5822982879116183,1.8173054597613454
1.5861734061708426,1.7925547044282357
1.5979237647633289,1.7550535599841306
1.6017988830225531,1.756803613391522
1.6015488753929257,1.774179143650624
1.5985487838373975,1.796054811243019
1.582923306985687,1.8211805780205697
1.596798730430006,1.804805078279977
1.5981737723929563,1.8616818140202034
1.5892985015411847,1.8146803796502577
1.5876734519486069,1.7509284340952787
1.576548112430189,1.7166773888363294
1.5804232306894133,1.761928769798883
1.5779231543931396,1.8183054902798548
1.5702979216895046,1.8745572069460128
1.57217297891171,1.7985548875392925
1.5920485854670858,1.7534285103915526
1.5892985015411847,1.7523034760582294
1.583298318430128,1.76555388042848
1.574923062837611,1.8508064821314127
1.5712979522080142,1.8558066347239601
1.5992988067262794,1.74180315561388
1.61492428357799,1.7808043458357494
1.6024239020966218,1.7751791741691336
1.5959237037263099,1.6926766563921019
1.580923245948668,1.6794262520218513
1.5572975249488816,1.7386780602435379
1.5459221778008363,1.7851794793542284
1.5621726737266153,1.7976798608355968
1.5831733146153144,1.8060551164281138
1.6079240699484236,1.7454282662434768
1.6259246192815942,1.6769261757255778
1.6200494399853511,1.6570505691702018
1.5969237342448195,1.6893015533921325
1.5901735282448806,1.7499284035767695
1.5981737723929563,1.7479283425397505
1.5985487838373975,1.7329278847621081
1.598673787652211,1.7800543229468673
1.5945486617633595,1.7255526596881008
1.6129242225409712,1.7008019043549913
1.6107991576891385,1.6758011413922544
1.625174596392712,1.6463002410962249
1.640300057985168,1.6488003173924985
1.6389250160222175,1.662925748466445
1.6319248023926511,1.708802148503067
1.6172993560594502,1.7481783501693777
1.601173863948485,1.695426740318003
1.6087990966521197,1.6638007751701407
1.6214244819483017,1.6350498977629933
1.6279246803186131,1.5920485854670858
1.6157993102816859,1.6615507065034945
1.614549272133549,1.6920516373180334
1.6041739555040133,1.6489253212073123
1.6460502334665976,1.5976737571337016
1.6694259468367565,1.6306747642445143
1.6656758323923462,1.5957986999114964
1.6505503707998903,1.6191744132816552
1.6257996154667806,1.6222995086519973
1.6177993713187049,1.6142992645039216
1.6164243293557543,1.6901765800958282
1.6180493789483323,1.7268026978362376
1.6618007141331217,1.6001738334299753
1.6913016144291515,1.5094210638752406
1.6738010803552354,1.509546067690054
1.658550614947966,1.5762981048005615
1.6464252449110386,1.5936736350596639
1.647425275429548,1.6109241615039522
1.6526754356517228,1.6066740318002868
1.6586756187627796,1.5759230933561206
1.6621757255775629,1.643050141911069
1.664925809503464,1.626049623096408
1.678676229132969,1.5549224524674214
1.6784262215033416,1.5274216132084109
1.6588006225775933,1.5972987456892607
1.6511753898739585,1.5965487228003785
1.6608006836146123,1.5762981048005615
1.6809262977996156,1.5520473647267068
1.684676412244026,1.5529223914304024
1.6760511490218817,1.5750480666524247
1.659800653096103,1.5502973113193153
1.6520504165776544,1.5959237037263099
1.6566755577257606,1.6515504013183995
1.6661758476516009,1.6810513016144293
1.6929266640217293,1.5709229407635732
1.7106772057252724,1.5244215216528825
1.6929266640217293,1.513546189764092
1.6574255806146427,1.5370469069490644
1.6464252449110386,1.5964237189855648
1.6449251991332745,1.6504253669850764
1.655425519577624,1.618549394207587
1.6509253822443313,1.6067990356151007
1.680676290169988,1.5889234900967437
1.6963017670216987,1.5811732535782954
1.686301461836604,1.6511753898739585
1.654550492873928,1.6939266945402387
1.6553005157628102,1.5761731009857478
1.6703009735404524,1.534921842097232
1.677926206244087,1.6245495773186438
1.6808012939848018,1.5921735892818996
1.6889265419476913,1.5717979674672689
1.6623007293923764,1.5797982116153446
1.6411750846888638,1.5570475173192542
1.669175939207129,1.5824232917264323
1.6876765037995543,1.5855483870967744
1.6881765190588092,1.655800531022065
1.6725510422070986,1.7101771904660177
1.6706759849848933,1.5974237495040742
1.6730510574663533,1.505170934171575
1.6783012176885281,1.5231714835047456
1.6620507217627492,1.5717979674672689
1.6401750541703544,1.5994238105410932
1.6479252906888027,1.6484253059480574
1.649425336466567,1.7114272286141545
1.6521754203924681,1.6175493636890774
1.655800531022065,1.5442971282082585
1.6663008514664144,1.4807951902829066
1.666800866725669,1.4974206976531268
1.669300943021943,1.5296716818750573
1.6703009735404524,1.5891734977263712
1.6749261146885588,1.6945517136143071
1.6626757408368176,1.5935486312448501
1.673551072725608,1.5262965788750877
1.6703009735404524,1.499670766319773
1.6595506454664755,1.5180463270973845
1.6559255348368787,1.5352968535416731
1.6614257026886807,1.5352968535416731
1.643925168614765,1.5994238105410932
1.6568005615405743,1.630799768059328
1.6849264198736535,1.5831733146153144
1.6759261452070682,1.5317967467268898
1.6678008972441787,1.5015458235419783
1.6571755729850153,1.5140462050233467
1.6548005005035553,1.6082990813928648
1.6596756492812892,1.6267996459852903
1.667300881984924,1.6032989288003174
1.6730510574663533,1.5165462813196202
1.6734260689107945,1.5060459608752708
1.6706759849848933,1.5327967772453994
1.6804262825403606,1.5171713003936889
1.6706759849848933,1.5234214911343729
1.6499253517258217,1.5724229865413375
1.6425501266518143,1.5980487685781428
1.6583006073183386,1.5452971587267679
1.6575505844294565,1.515546250801111
1.6666758629108556,1.5576725363933226
1.6789262367625966,1.581298257393109
1.6833013702810755,1.563047700430311
1.6789262367625966,1.5145462202826014
1.666800866725669,1.5292966704306161
1.6531754509109775,1.564172734763634
1.6570505691702018,1.5826732993560595
1.6679259010589922,1.567797845393231
1.66480080568865,1.5870484328745385
1.6620507217627492,1.607424054689169
1.6719260231330302,1.5421720633564255
1.6714260078737755,1.5542974333933532
1.6685509201330608,1.563047700430311
1.6599256569109164,1.639925046540727
1.666050843836787,1.595173680837428
1.6709259926145208,1.5401720023194068
1.6726760460219123,1.5517973570970793
1.668050904873806,1.60542399365215
1.6549255043183693,1.5894235053559984
1.6526754356517228,1.5344218268379772
1.651050386059145,1.566297799615467
1.6540504776146734,1.6415500961333047
1.671676015503403,1.6191744132816552
1.6715510116885892,1.6290497146519365
1.6571755729850153,1.6196744285409101
1.6651758171330913,1.5664228034302805
1.6753011261329998,1.606174016541032
1.6824263435773796,1.6007988525040437
1.683926389355144,1.5737980285042878
1.660925687429426,1.6377999816888944
1.655800531022065,1.6793012482070377
1.6488003173924985,1.624924588763085
1.6488003173924985,1.5934236274300364
1.6631757560960723,1.5724229865413375
1.6820513321329387,1.5811732535782954
1.6765511642811366,1.5957986999114964
1.6694259468367565,1.6352999053926207
1.680676290169988,1.6369249549851985
1.6790512405774103,1.6250495925778985
1.6686759239478743,1.6759261452070682
1.6678008972441787,1.6571755729850153
1.660925687429426,1.6400500503555409
1.6499253517258217,1.6433001495406965
1.6694259468367565,1.605048982207709
1.6796762596514787,1.5985487838373975
1.6841763969847714,1.625174596392712
1.6860514542069764,1.610549150059511
1.662800744651631,1.630799768059328
1.6689259315775018,1.6337998596148564
1.6753011261329998,1.6575505844294565
1.6678008972441787,1.6788012329477828
1.6621757255775629,1.6620507217627492
1.6618007141331217,1.6262996307260353
1.6655508285775322,1.6219244972075564
1.6469252601702933,1.749678395947142
1.6424251228370008,1.6621757255775629
1.6506753746147038,1.5837983336893826
1.6610506912442398,1.641925107577746
1.6614257026886807,1.664925809503464
1.6496753440961944,1.6257996154667806
1.6496753440961944,1.6230495315408795
1.655425519577624,1.6448001953184606
1.643925168614765,1.6734260689107945
1.6511753898739585,1.6778012024292734
1.671676015503403,1.6104241462446975
1.6583006073183386,1.609799127170629
1.6621757255775629,1.670800988799707
1.6553005157628102,1.706927091280862
1.647050263985107,1.669300943021943
1.6566755577257606,1.6951767326883755
1.6501753593554491,1.6834263740958892
1.6620507217627492,1.6215494857631152
1.6556755272072514,1.6124242072817165
1.6429251380962555,1.620924466689047
1.6559255348368787,1.633549851985229
1.6536754661702324,1.6476752830591754
1.6460502334665976,1.633549851985229
1.6476752830591754,1.643050141911069
1.6414250923184912,1.6745511032441176
1.6369249549851985,1.7359279763176367
1.6350498977629933,1.6204244514297923
1.6384250007629628,1.5961737113559373
1.6433001495406965,1.684301400799585
1.6469252601702933,1.7034269844660788
1.6620507217627492,1.6066740318002868
1.653800469985046,1.521796441541795
1.6167993408001955,1.5842983489486373
1.6505503707998903,1.634299874874111
1.6594256416516617,1.6174243598742637
1.660550675984985,1.608174077578051
1.660550675984985,1.5870484328745385
1.656550553910947,1.5945486617633595
1.6539254737998597,1.622924527726066
1.6568005615405743,1.6111741691335797
1.6666758629108556,1.6014238715781122
1.6684259163182469,1.6624257332071901
1.6619257179479354,1.6035489364299447
1.6754261299478135,1.5455471663563953
1.6744260994293039,1.521796441541795
1.6614257026886807,1.6064240241706595
1.649050325022126,1.6523004242072816
1.6551755119479965,1.6314247871333964
1.666425855281228,1.596673726615192
1.6728010498367258,1.5186713461714532
1.6385500045777766,1.5196713766899625
1.6685509201330608,1.6136742454298534
1.6868014770958586,1.6287997070223093
1.6784262215033416,1.634299874874111
1.677926206244087,1.5476722312082278
1.6669258705404828,1.584423352763451
1.6610506912442398,1.588048463393048
1.666800866725669,1.5867984252449112
1.669675954466384,1.550422315134129
1.6529254432813503,1.5574225287636951
1.6760511490218817,1.5886734824671163
1.6759261452070682,1.5695478988006226
1.6803012787255471,1.5790481887264625
1.6753011261329998,1.629299722281564
1.6498003479110082,1.625174596392712
1.66717587817011,1.6021738944669943
1.6924266487624744,1.5427970824304942
1.688301522873623,1.5317967467268898
1.6811763054292428,1.5521723685415205
1.6643007904293954,1.5690478835413677
1.677176183355205,1.565797784356212
1.6911766106143375,1.580048219244972
1.679926267281106,1.6200494399853511
1.6675508896145512,1.5717979674672689
1.6546754966887418,1.5156712546159246
1.6574255806146427,1.5404220099490342
1.6623007293923764,1.6543004852443006
1.6763011566515091,1.6164243293557543
1.6718010193182167,1.624924588763085
1.666800866725669,1.6009238563188575
1.6686759239478743,1.5589225745414594
1.6769261757255778,1.5340468153935363
1.673676076540422,1.5371719107638784
1.6551755119479965,1.6267996459852903
1.667675893429365,1.651425397503586
1.6553005157628102,1.6801762749107334
1.6621757255775629,1.5485472579119235
1.6645507980590228,1.538046937467574
1.6479252906888027,1.530171697134312
1.6339248634296701,1.6436751609851377
1.653425458540605,1.6710509964293345
1.6539254737998597,1.583298318430128
1.663300759910886,1.5835483260597554
1.6553005157628102,1.6400500503555409
1.6500503555406356,1.5675478377636038
1.6670508743552965,1.5519223609118933
1.6365499435407576,1.5176713156529436
1.6481752983184301,1.6242995696890163
1.6488003173924985,1.6257996154667806
1.6495503402813807,1.6282996917630543
1.6571755729850153,1.609424115726188
1.651050386059145,1.6621757255775629
1.6768011719107638,1.620924466689047
1.6955517441328165,1.603173924985504
1.6848014160588396,1.5886734824671163
1.6520504165776544,1.5686728720969267
1.649050325022126,1.5857983947264016
1.6613006988738672,1.5941736503189183
1.6875514999847407,1.6046739707632678
1.681926328318125,1.6694259468367565
1.6669258705404828,1.686676473281045
1.671176000244148,1.6466752525406658
1.6714260078737755,1.5936736350596639
1.6699259620960112,1.528546647541734
1.668800927762688,1.487795403912473
1.6761761528366956,1.4380438856166264
1.6715510116885892,1.3037897885067293
1.6571755729850153,1.179535996581927
1.6570505691702018,1.1461599780266731
1.6551755119479965,1.1155340433973204
1.6718010193182167,1.2090368968779566
1.682676351207007,1.2632885525070956
1.683926389355144,1.359416486098819
1.6788012329477828,1.443294045838801
1.664925809503464,1.5035458845789973
1.6566755577257606,1.5251715445417646
1.630049745170446,1.566172795800653
1.6126742149113438,1.669175939207129
1.61254921109653,1.7331778923917356
1.5839233375041963,1.8583067110202338
1.5856733909115879,1.879182348094119
1.6007988525040437,1.7435532090212715
1.6226745200964385,1.544422132023072
1.6275496688741722,1.4035428327280495
1.6445501876888333,1.3290405590990935
1.6599256569109164,1.3917924741355632
1.6505503707998903,1.469544846949675
1.630424756614887,1.5076710104678488
1.6175493636890774,1.5354218573564866
1.6239245582445754,1.54604718161565
1.627174657429731,1.5734230170598467
1.6339248634296701,1.6364249397259438
1.6294247260963775,1.6139242530594806
1.625174596392712,1.5445471358378857
1.6112991729483932,1.5905485396893215
1.6416750999481187,1.609799127170629
1.641925107577746,1.594798669392987
1.6250495925778985,1.5912985625782037
1.6230495315408795,1.6095491195410014
1.6306747642445143,1.6920516373180334
1.631174779503769,1.6408000732444226
1.6241745658742028,1.5774231391338847
1.6436751609851377,1.6055489974669637
1.637924985503708,1.6277996765037996
1.616924344615009,1.6409250770592365
1.609424115726188,1.6155493026520584
1.6127992187261575,1.6466752525406658
1.6156743064668722,1.588048463393048
1.6080490737632376,1.6486753135776848
1.6065490279854733,1.8131803338724937
1.625299600207526,1.7218025452436905
1.6431751457258827,1.5465471968749047
1.632424817651906,1.5060459608752708
1.633174840540788,1.6056740012817774
1.6371749626148258,1.6037989440595721
1.6334248481704154,1.5954236884670552
1.635174901577807,1.6519254127628407
1.6367999511703848,1.677551194799646
1.63154979094821,1.6461752372814111
1.6456752220221567,1.6205494552446058
1.6440501724295786,1.6139242530594806
1.6480502945036166,1.6674258857997375
1.6404250617999818,1.7499284035767695
1.643925168614765,1.6821763359477524
1.642675130466628,1.5961737113559373
1.63154979094821,1.6433001495406965
1.6266746421704763,1.591923581652272
1.6438001647999512,1.5811732535782954
1.6436751609851377,1.6041739555040133
1.647425275429548,1.6891765495773186
1.662925748466445,1.6869264809106725
1.6560505386516924,1.6259246192815942
1.6489253212073123,1.5839233375041963
1.6571755729850153,1.631174779503769
1.656925565355388,1.6000488296151616
1.6568005615405743,1.7440532242805262
1.6685509201330608,1.747678334910123
1.6724260383922849,1.679926267281106
1.6575505844294565,1.5976737571337016
1.6455502182073427,1.6319248023926511
1.6610506912442398,1.6904265877254554
1.6858014465773492,1.7089271523178808
1.6763011566515091,1.6551755119479965
1.6428001342814416,1.6424251228370008
1.6413000885036775,1.7233025910214546
1.658550614947966,1.7481783501693777
1.6588006225775933,1.6689259315775018
1.6719260231330302,1.7186774498733484
1.6758011413922544,1.7098021790215767
1.6576755882442702,1.6385500045777766
1.6588006225775933,1.701801934873501
1.6793012482070377,1.7254276558732873
1.6623007293923764,1.7015519272438735
1.6706759849848933,1.737803033539842
1.6695509506515702,1.7026769615771966
1.671301004058962,1.7965548265022737
1.665300820947905,1.8325559251686148
1.668050904873806,1.7466783043916136
1.6571755729850153,1.6829263588366346
1.6723010345774711,1.6369249549851985
1.6726760460219123,1.6904265877254554
1.6603006683553576,1.7556785790581988
1.6686759239478743,1.8038050477614673
1.6548005005035553,1.7739291360209968
1.645925229651784,1.6965517746513261
1.6480502945036166,1.7634288155766473
1.6561755424665061,1.7799293191320538
1.6741760917996766,1.7161773735770747
1.669300943021943,1.6600506607257304
1.6728010498367258,1.6950517288735618
1.668800927762688,1.6504253669850764
1.6391750236518448,1.7376780297250283
1.6746761070589313,1.7478033387249368
1.677551194799646,1.7709290444654684
1.6783012176885281,1.7319278542435987
1.6701759697256386,1.789679616687521
1.6659258400219734,1.7315528427991578
1.6623007293923764,1.6698009582811977
1.6739260841700492,1.6778012024292734
1.6611756950590533,1.7214275337992493
1.6621757255775629,1.757553636280404
1.666425855281228,1.6873014923551135
1.654550492873928,1.6701759697256386
1.6330498367259743,1.6808012939848018
1.6595506454664755,1.6980518204290902
1.6805512863551746,1.6849264198736535
1.6861764580217904,1.6685509201330608
1.6663008514664144,1.6231745353556932
1.6531754509109775,1.7299277932065797
1.6781762138737144,1.7685539719840082
1.6695509506515702,1.7141773125400557
1.6583006073183386,1.666800866725669
1.6563005462813196,1.6453002105777155
1.6491753288369395,1.6698009582811977
1.6495503402813807,1.685051423688467
1.653425458540605,1.673676076540422
1.658925626392407,1.6634257637256997
1.6556755272072514,1.6721760307626576
1.657800592059084,1.688301522873623
1.6581756035035249,1.671676015503403
1.6455502182073427,1.7221775566881314
1.634424878688925,1.73942808313242
1.6287997070223093,1.6576755882442702
1.6461752372814111,1.6019238868373669
1.640300057985168,1.616924344615009
1.6332998443556017,1.718427442243721
1.654550492873928,1.6838013855403302
1.6606756797997986,1.6473002716147345
1.6536754661702324,1.6618007141331217
1.6503003631702629,1.6451752067629017
1.6405500656147955,1.6748011108737448
1.635549913022248,1.7216775414288765
1.629674733726005,1.625674611651967
1.6352999053926207,1.6119241920224616
1.6513003936887722,1.6384250007629628
1.6438001647999512,1.700926908169805
1.6420501113925596,1.6415500961333047
1.6326748252815333,1.6150492873928037
1.6409250770592365,1.6573005767998292
1.6515504013183995,1.6574255806146427
1.6498003479110082,1.6679259010589922
1.645925229651784,1.63629993591113
1.633549851985229,1.6051739860225227
1.6393000274666587,1.6356749168370617
1.6535504623554185,1.6347998901333658
1.657800592059084,1.6052989898373364
1.653800469985046,1.6356749168370617
1.6495503402813807,1.6056740012817774
1.6413000885036775,1.6106741538743248
1.644675191503647,1.608174077578051
1.6418001037629322,1.6370499588000123
1.6380499893185219,1.6222995086519973
1.6404250617999818,1.6107991576891385
1.660550675984985,1.6005488448744163
1.673551072725608,1.6072990508743554
1.6794262520218513,1.673551072725608
1.6718010193182167,1.6940516983550522
1.6570505691702018,1.607424054689169
1.6405500656147955,1.5990487990966522
1.6576755882442702,1.6369249549851985
1.6479252906888027,1.610549150059511
1.6606756797997986,1.667300881984924
1.6701759697256386,1.625674611651967
1.6701759697256386,1.5929236121707817
1.6638007751701407,1.613799249244667
1.6570505691702018,1.6865514694662314
1.6556755272072514,1.6202994476149783
1.6489253212073123,1.6524254280220954
1.671301004058962,1.6210494705038605
1.6513003936887722,1.6469252601702933
1.6365499435407576,1.6536754661702324
1.6618007141331217,1.6346748863185523
1.6729260536515398,1.5624226813562427
1.6685509201330608,1.5711729483932007
1.6371749626148258,1.6995518662068545
1.6255496078371532,1.7428031861323894
1.644675191503647,1.7471783196508683
1.6674258857997375,1.602673909726249
1.6744260994293039,1.5230464796899321
1.6593006378368482,1.5594225898007141
1.6493003326517535,1.6599256569109164
1.6454252143925292,1.64105008087405
1.660925687429426,1.6445501876888333
1.6595506454664755,1.6349248939481797
1.655425519577624,1.5906735435041353
1.654550492873928,1.5795482039857174
1.6354249092074344,1.596298715170751
1.6539254737998597,1.6665508590960418
1.6604256721701711,1.691051606799524
1.6600506607257304,1.6650508133182775
1.6559255348368787,1.6247995849482713
1.6428001342814416,1.6214244819483017
1.643925168614765,1.6285496993926818
1.6290497146519365,1.6618007141331217
1.6523004242072816,1.6580505996887114
1.666425855281228,1.5841733451338236
1.6656758323923462,1.6540504776146734
1.6540504776146734,1.6728010498367258
1.6663008514664144,1.6654258247627187
1.6728010498367258,1.6224245124668113
1.673676076540422,1.6354249092074344
1.6521754203924681,1.668800927762688
1.645925229651784,1.6524254280220954
1.6455502182073427,1.6670508743552965
1.6535504623554185,1.635924924466689
1.6456752220221567,1.5742980437635425
1.6476752830591754,1.633174840540788
1.6234245429853207,1.6601756645405439
1.6341748710592976,1.7141773125400557
1.6421751152073734,1.686676473281045
1.6541754814294871,1.6350498977629933
1.6599256569109164,1.5939236426892909
1.639925046540727,1.562297677541429
1.6626757408368176,1.59829877620777
1.656550553910947,1.5977987609485154
1.6466752525406658,1.6226745200964385
1.6473002716147345,1.6706759849848933
1.6495503402813807,1.627674672688986
1.6404250617999818,1.7153023468733786
1.6613006988738672,1.6469252601702933
1.658550614947966,1.6046739707632678
1.6489253212073123,1.5584225592822047
1.628049684133427,1.632299813837092
1.6421751152073734,1.7156773583178198
1.6421751152073734,1.6286747032074953
1.6401750541703544,1.653425458540605
1.633549851985229,1.6104241462446975
1.6564255500961331,1.4926705526902067
1.6464252449110386,1.5239215063936278
1.640300057985168,1.6065490279854733
1.6420501113925596,1.6889265419476913
1.6533004547257912,1.66717587817011
1.6460502334665976,1.5811732535782954
1.6352999053926207,1.55554747154149
1.6306747642445143,1.6314247871333964
1.6506753746147038,1.6411750846888638
1.6576755882442702,1.6215494857631152
1.6531754509109775,1.6381749931333354
1.6385500045777766,1.6242995696890163
1.630799768059328,1.602673909726249
1.653425458540605,1.6259246192815942
1.6454252143925292,1.6935516830957975
1.634424878688925,1.6931766716513565
1.6346748863185523,1.6434251533555102
1.6302997528000733,1.6583006073183386
1.6546754966887418,1.6411750846888638
1.6491753288369395,1.6444251838740198
1.6493003326517535,1.6207994628742333
1.6495503402813807,1.5652977690969574
1.6341748710592976,1.5450471510971404
1.621299478133488,1.5956736960966826
1.6438001647999512,1.6509253822443313
1.651800408948027,1.6067990356151007
1.6325498214667196,1.5926736045411543
1.6451752067629017,1.6367999511703848
1.6476752830591754,1.616549333170568
1.6528004394665363,1.6199244361705374
1.6511753898739585,1.655800531022065
1.651425397503586,1.6574255806146427
1.6574255806146427,1.6160493179113133
1.6615507065034945,1.5826732993560595
1.658925626392407,1.5757980895413068
1.6471752677999205,1.6020488906521806
1.6306747642445143,1.6743010956144901
1.6305497604297006,1.6250495925778985
1.6418001037629322,1.6012988677632984
1.6466752525406658,1.6019238868373669
1.6546754966887418,1.61017413861507
1.6619257179479354,1.609424115726188
1.6658008362071597,1.6112991729483932
1.6621757255775629,1.6110491653187657
1.6461752372814111,1.6129242225409712
1.6385500045777766,1.628049684133427
1.6389250160222175,1.625674611651967
1.6453002105777155,1.6391750236518448
1.6505503707998903,1.6282996917630543
1.6561755424665061,1.6262996307260353
1.665300820947905,1.6009238563188575
1.6654258247627187,1.6062990203558458
1.6481752983184301,1.6195494247260964
1.6254246040223395,1.62204950102237
1.6339248634296701,1.6420501113925596
1.6390500198370312,1.637924985503708
1.6536754661702324,1.6161743217261269
1.673551072725608,1.6246745811334575
1.6944267097994934,1.6119241920224616
1.6899265724662007,1.6187994018372145
1.656550553910947,1.6374249702444532
1.6115491805780204,1.649050325022126
1.6014238715781122,1.6461752372814111
1.6119241920224616,1.64105008087405
1.6356749168370617,1.631674794763024
1.6511753898739585,1.6285496993926818
1.6415500961333047,1.6593006378368482
1.6241745658742028,1.6803012787255471
1.623299539170507,1.702551957762383
1.6129242225409712,1.6961767632068852
1.594298654133732,1.6864264656514176
1.5756730857264931,1.675676137577441
1.5580475478377636,1.695801751762444
1.5474222235786004,1.7163023773918882
1.542047059541612,1.7254276558732873
1.5407970213934752,1.730302804651021
1.5375469222083193,1.7299277932065797
1.5524223761711478,1.7348029419843134
1.5644227423932615,1.7271777092806788
1.5626726889858698,1.7231775872066408
1.5704229255043185,1.733427900021363
1.5754230780968657,1.7429281899472029
1.5772981353190711,1.7349279457991271
1.5629226966154972,1.7188024536881619
1.553547410504471,1.6783012176885281
1.5666728110599077,1.625174596392712
1.5779231543931396,1.58167326883755
1.596798730430006,1.5371719107638784
1.637549974059267,1.4880454115421002
1.6718010193182167,1.4534193548387098
1.6643007904293954,1.4812952055421613
1.6140492568742943,1.5537974181340983
1.5797982116153446,1.6075490585039827
1.5632977080599384,1.6204244514297923
1.556672505874813,1.6222995086519973
1.5604226203192237,1.596298715170751
1.5761731009857478,1.5636727195043794
1.574923062837611,1.5521723685415205
1.5467972045045322,1.560672627948851
1.5186713461714532,1.5989237952818385
1.480670186468093,1.6364249397259438
1.4687948240607929,1.640300057985168
1.4660447401348917,1.6195494247260964
1.4700448622089297,1.6274246650593585
1.500420789208655,1.6255496078371532
1.503170873134556,1.6239245582445754
1.488170415356914,1.601048860133671
1.4724199346903897,1.5834233222449416
1.4397939390240182,1.5906735435041353
1.433918759727775,1.6115491805780204
1.4672947782830286,1.610549150059511
1.4915455183568835,1.59829877620777
1.5054209418012026,1.599173802911466
1.5140462050233467,1.6084240852076785
1.5307967162083804,1.6110491653187657
1.534921842097232,1.609049104281747
1.5565475020599995,1.60304892117069
1.582923306985687,1.6082990813928648
1.5940486465041048,1.6262996307260353
1.6091741080965607,1.6326748252815333
1.599548814355907,1.624049562059389
1.6007988525040437,1.6174243598742637
1.6270496536149175,1.626424634540849
1.6448001953184606,1.6294247260963775
1.6865514694662314,1.6215494857631152
1.704052003540147,1.6077990661336101
1.6860514542069764,1.6052989898373364
1.6485503097628713,1.618924405652028
1.6367999511703848,1.626049623096408
1.6394250312814722,1.6294247260963775
1.6290497146519365,1.6285496993926818
1.6255496078371532,1.6262996307260353
1.640300057985168,1.634424878688925
1.6297997375408186,1.6453002105777155
1.625174596392712,1.6347998901333658
1.6254246040223395,1.6175493636890774
1.633174840540788,1.6127992187261575
1.628424695577868,1.625674611651967
1.6360499282815029,1.645050202948088
1.6372999664296397,1.6616757103183082
1.6367999511703848,1.66480080568865
1.6156743064668722,1.6761761528366956
1.5939236426892909,1.6766761680959503
1.6277996765037996,1.6689259315775018
1.6670508743552965,1.673551072725608
1.70617706839198,1.6950517288735618
1.6814263130588702,1.7221775566881314
1.5791731925412764,1.743303201391644
1.5310467238380079,1.7506784264656514
1.56029761650441,1.761928769798883
1.5876734519486069,1.7644288460951567
1.620924466689047,1.7581786553544725
1.6124242072817165,1.7860545060579243
1.6146742759483628,1.7991799066133611
1.6541754814294871,1.789679616687521
1.6810513016144293,1.7771792352061526
1.6421751152073734,1.778179265724662
1.6124242072817165,1.7660538956877345
1.6357999206518754,1.7429281899472029
1.6984268318735312,1.7368030030213324
1.723552598651082,1.7485533616138187
1.6645507980590228,1.763928830835902
1.6214244819483017,1.760428724021119
1.6279246803186131,1.741303140354625
1.654550492873928,1.723927610095523
1.6719260231330302,1.725927671132542
1.6865514694662314,1.7351779534287546
1.6983018280587177,1.7268026978362376
1.6915516220587787,1.7154273506881925
1.6790512405774103,1.6941767021698662
1.683051362651448,1.7010519119846188
1.6808012939848018,1.7181774346140937
1.6963017670216987,1.731052827539903
1.7145523239844966,1.7301778008362072
1.7203024994659262,1.7181774346140937
1.728302743614002,1.712427259132664
1.7204275032807397,1.711177220984527
1.685926450392163,1.7150523392437513
1.6808012939848018,1.7149273354289376
1.7044270149845882,1.7079271217993715
1.6794262520218513,1.7181774346140937
1.631674794763024,1.7366779992065189
1.6219244972075564,1.73942808313242
1.6376749778740807,1.729427777947325
1.6540504776146734,1.7220525528733177
1.6588006225775933,1.729427777947325
1.6644257942442091,1.706052064577166
1.6704259773552659,1.6918016296884062
1.6886765343180639,1.6939266945402387
1.7194274727622303,1.6956767479476302
1.699301858577227,1.7038019959105197
1.631674794763024,1.7065520798364209
1.635924924466689,1.6953017365031893
1.6481752983184301,1.6793012482070377
1.6721760307626576,1.6813013092440567
1.7004268929105502,1.6825513473921934
1.7244276253547777,1.6663008514664144
1.6886765343180639,1.6441751762443924
1.6720510269478437,1.6463002410962249
1.7035519882808923,1.6656758323923462
1.742178167058321,1.6746761070589313
1.7233025910214546,1.6785512253181556
1.6405500656147955,1.6769261757255778
1.6274246650593585,1.6706759849848933
1.6571755729850153,1.6516754051332134
1.6785512253181556,1.643050141911069
1.7051770378734703,1.6481752983184301
1.7075521103549303,1.6594256416516617
1.704052003540147,1.6789262367625966
1.7166773888363294,1.6868014770958586
1.7289277626880704,1.6831763664662618
1.7576786400952178,1.677176183355205
1.7815543687246316,1.6698009582811977
1.7789292886135442,1.6626757408368176
1.7490533768730736,1.640675069429609
1.7059270607623525,1.632299813837092
1.6840513931699574,1.6540504776146734
1.6778012024292734,1.6925516525772883
1.7188024536881619,1.7139273049104282
1.7536785180211798,1.7189274575029754
1.7566786095767084,1.7221775566881314
1.7388030640583514,1.729052766502884
1.734302926725059,1.7311778313547166
1.7566786095767084,1.7419281594286935
1.8024300057985168,1.7435532090212715
1.8436812646870329,1.7188024536881619
1.794429761650441,1.6936766869106112
1.7211775261696218,1.6868014770958586
1.6805512863551746,1.6956767479476302
1.6881765190588092,1.6963017670216987
1.715552354503006,1.6961767632068852
1.725052644428846,1.6939266945402387
1.7233025910214546,1.6820513321329387
1.7150523392437513,1.6595506454664755
1.7268026978362376,1.635174901577807
1.7315528427991578,1.624924588763085
1.6895515610217597,1.6217994933927427
1.6891765495773186,1.6317997985778374
1.7096771752067628,1.6290497146519365
1.7403031098361157,1.6017988830225531
1.7919296853541673,1.583298318430128
1.7898046205023346,1.5981737723929563
1.6759261452070682,1.6087990966521197
1.647425275429548,1.60067384868923
1.7074271065401168,1.6002988372447888
1.7458032776879178,1.599173802911466
1.7686789757988222,1.5984237800225838
1.7735541245765558,1.5984237800225838
1.7361779839472642,1.6037989440595721
1.6909266029847103,1.6027989135410627
1.6899265724662007,1.5974237495040742
1.7201774956511124,1.5854233832819604
1.7611787469100009,1.5715479598376416
1.7755541856135748,1.5726729941709647
1.7519284646137883,1.5805482345042268
1.7020519425031282,1.5759230933561206
1.6620507217627492,1.5716729636524553
1.645050202948088,1.5854233832819604
1.6526754356517228,1.586048402356029
1.6706759849848933,1.5696729026154363
1.7141773125400557,1.5481722464674825
1.7375530259102145,1.5486722617267374
1.6768011719107638,1.5485472579119235
1.6620507217627492,1.5299216895046848
1.6794262520218513,1.5189213538010804
1.695801751762444,1.5066709799493394
1.7415531479842525,1.4875453962828455
1.7905546433912167,1.5072959990234076
1.7464282967619862,1.567047822504349
1.7066770836512346,1.5955486922818691
1.762803796502579,1.5885484786523028
1.7968048341319012,1.588423474837489
1.7633038117618336,1.6015488753929257
1.7454282662434768,1.6171743522446362
1.7038019959105197,1.6372999664296397
1.6871764885402998,1.6529254432813503
1.6925516525772883,1.6619257179479354
1.7065520798364209,1.6634257637256997
1.7340529190954315,1.6584256111331521
1.7729291055024872,1.6643007904293954
1.7748041627246927,1.6900515762810144
1.7121772515030367,1.7210525223548083
1.7028019653920103,1.7363029877620777
1.7375530259102145,1.7371780144657736
1.7778042542802208,1.7390530716879788
1.7620537736136967,1.741303140354625
1.7301778008362072,1.7459282815027315
1.7213025299844356,1.7463032929471725
1.7293027741325113,1.7261776787621694
1.7525534836878567,1.7084271370586261
1.7875545518356883,1.698176824243904
1.7963048188726465,1.6889265419476913
1.7814293649098176,1.6840513931699574
1.7966798303170874,1.6814263130588702
1.7814293649098176,1.6796762596514787
1.7116772362437818,1.6794262520218513
1.6888015381328776,1.6720510269478437
1.6881765190588092,1.6643007904293954
1.7030519730216378,1.6606756797997986
1.717552415540025,1.656550553910947
1.6990518509475998,1.6655508285775322
1.6970517899105808,1.6741760917996766
1.7068020874660481,1.6811763054292428
1.7328028809472946,1.6715510116885892
1.752428479873043,1.6634257637256997
1.7581786553544725,1.6593006378368482
1.6953017365031893,1.653800469985046
1.637924985503708,1.63629993591113
1.636674947355571,1.6236745506149481
1.6715510116885892,1.628049684133427
1.7093021637623218,1.6282996917630543
1.7380530411694692,1.6106741538743248
1.733052888576922,1.5895485091708121
1.7158023621326335,1.5740480361339153
1.6881765190588092,1.5585475630970183
1.6945517136143071,1.5521723685415205
1.6840513931699574,1.54842225409711
1.6721760307626576,1.5500473036896878
1.6960517593920712,1.541672048097171
1.7513034455397198,1.5245465254676962
1.7468033082064272,1.5315467390972626
1.6968017822809534,1.5445471358378857
1.667300881984924,1.552672383800775
1.682676351207007,1.5442971282082585
1.7333028962065493,1.5284216437269205
1.7006769005401776,1.5450471510971404
1.6404250617999818,1.5490472731711782
1.6309247718741418,1.5324217658009582
1.6638007751701407,1.5190463576158941
1.6634257637256997,1.517921323282571
1.6501753593554491,1.5312967314676351
1.6332998443556017,1.5450471510971404
1.6227995239112523,1.5404220099490342
1.6381749931333354,1.5447971434675132
1.6706759849848933,1.5592975859859004
1.7150523392437513,1.58404834131901
1.7211775261696218,1.614174260689108
1.7348029419843134,1.6089241004669332
1.7904296395764032,1.5787981810968352
1.7469283120212409,1.5740480361339153
1.649050325022126,1.576548112430189
1.63154979094821,1.5734230170598467
1.6509253822443313,1.5709229407635732
1.6983018280587177,1.5776731467635121
1.7266776940214241,1.5900485244300668
1.7146773277993104,1.5874234443189794
1.7331778923917356,1.5774231391338847
1.7704290292062137,1.5906735435041353
1.7406781212805567,1.611799188207648
1.666425855281228,1.6155493026520584
1.6536754661702324,1.6129242225409712
1.6941767021698662,1.618549394207587
1.7341779229102452,1.627674672688986
1.7455532700582903,1.6187994018372145
1.742553178502762,1.6051739860225227
1.7451782586138493,1.607049043244728
1.7448032471694084,1.6236745506149481
1.739803094576861,1.633174840540788
1.7501784112063965,1.6287997070223093
1.735802972502823,1.6226745200964385
1.7015519272438735,1.6151742912076175
1.700551896725364,1.6025489059114353
1.7136772972808008,1.5890484939115572
1.7050520340586566,1.5781731620227668
1.7136772972808008,1.5680478530228583
1.7448032471694084,1.5679228492080448
1.7631788079470199,1.57692312387463
1.730302804651021,1.5804232306894133
1.6986768395031586,1.5612976470229194
1.6745511032441176,1.5332967925046541
1.6753011261329998,1.515796258430738
1.6845514084292124,1.5425470748008667
1.670050965910825,1.5711729483932007
1.6546754966887418,1.580923245948668
1.6550505081331828,1.5645477462080752
1.7105522019104589,1.5382969450972015
1.7883045747245705,1.5379219336527605
1.7505534226508377,1.5631727042451247
1.684676412244026,1.569422894985809
1.6646758018738366,1.5636727195043794
1.6305497604297006,1.5639227271340068
1.6508003784295175,1.5635477156895659
1.7645538499099704,1.5587975707266457
1.8426812341685233,1.5605476241340372
1.7214275337992493,1.5675478377636038
1.627299661244545,1.5666728110599077
1.5835483260597554,1.5714229560228279
1.6126742149113438,1.5724229865413375
1.6641757866145819,1.564297738578448
1.701801934873501,1.5646727500228887
1.6980518204290902,1.5699229102450638
1.679551255836665,1.5741730399487288
1.6473002716147345,1.5751730704672384
1.6405500656147955,1.5697979064302499
1.6599256569109164,1.5615476546525469
1.700926908169805,1.552797387615589
1.7070520950956756,1.5454221625415814
1.6784262215033416,1.5455471663563953
1.630424756614887,1.5457971739860226
1.6104241462446975,1.5359218726157415
1.6726760460219123,1.511921140171514
1.6988018433179723,1.5010458082827236
1.6840513931699574,1.5076710104678488
1.6337998596148564,1.5256715598010193
1.5921735892818996,1.5304217047639395
1.5859233985412151,1.5307967162083804
1.5870484328745385,1.5386719565416427
1.5941736503189183,1.5486722617267374
1.6194244209112827,1.559922605059969
1.62204950102237,1.5932986236152227
1.6235495468001342,1.6182993865779596
1.6540504776146734,1.61492428357799
1.6678008972441787,1.6021738944669943
1.6262996307260353,1.5979237647633289
1.614174260689108,1.5957986999114964
1.626049623096408,1.6112991729483932
1.614549272133549,1.626049623096408
1.6247995849482713,1.6294247260963775
1.647050263985107,1.6241745658742028
1.6663008514664144,1.624924588763085
1.6684259163182469,1.6286747032074953
1.6705509811700798,1.6211744743186742
1.6719260231330302,1.6096741233558154
1.6644257942442091,1.6067990356151007
1.6326748252815333,1.61017413861507
1.6037989440595721,1.61017413861507
1.6120491958372754,1.6060490127262186
1.6349248939481797,1.5990487990966522
1.6600506607257304,1.6100491348002564
1.6120491958372754,1.625674611651967
1.5941736503189183,1.633549851985229
1.6001738334299753,1.636674947355571
1.6062990203558458,1.6381749931333354
1.6290497146519365,1.62204950102237
1.639550035096286,1.6297997375408186
1.6354249092074344,1.6511753898739585
1.6266746421704763,1.6504253669850764
1.6257996154667806,1.6491753288369395
1.626424634540849,1.655425519577624
1.6448001953184606,1.651050386059145
1.701301919614246,1.6347998901333658
1.7261776787621694,1.6299247413556321
1.686676473281045,1.63867500839259
1.645925229651784,1.6491753288369395
1.5964237189855648,1.6466752525406658
1.62204950102237,1.6166743369853815
1.6889265419476913,1.6092991119113744
1.6394250312814722,1.6349248939481797
1.5865484176152838,1.6441751762443924
1.6160493179113133,1.6424251228370008
1.651050386059145,1.6345498825037386
1.6301747489852596,1.6350498977629933
1.6299247413556321,1.6309247718741418
1.6544254890591144,1.6204244514297923
1.6583006073183386,1.611799188207648
1.6523004242072816,1.6160493179113133
1.664925809503464,1.6425501266518143
1.6384250007629628,1.63867500839259
1.6092991119113744,1.6266746421704763
1.6076740623187964,1.6126742149113438
1.6321748100222786,1.6077990661336101
1.644675191503647,1.6207994628742333
1.6496753440961944,1.635924924466689
1.6783012176885281,1.626049623096408
1.6820513321329387,1.6092991119113744
1.6414250923184912,1.596673726615192
1.6390500198370312,1.6020488906521806
1.6584256111331521,1.6255496078371532
1.6685509201330608,1.6374249702444532
1.667300881984924,1.6352999053926207
1.6568005615405743,1.6409250770592365
1.6483003021332439,1.6420501113925596
1.6895515610217597,1.626049623096408
1.686676473281045,1.6265496383556628
1.6332998443556017,1.651425397503586
1.5944236579485458,1.6651758171330913
1.611799188207648,1.6619257179479354
1.6533004547257912,1.651050386059145
1.6798012634662924,1.653800469985046
1.6706759849848933,1.6639257789849544
1.6515504013183995,1.645925229651784
1.6488003173924985,1.6269246498001038
1.645925229651784,1.6241745658742028
1.6443001800592059,1.630424756614887
1.6533004547257912,1.6310497756889553
1.6640507827997681,1.6216744895779291
1.6840513931699574,1.6200494399853511
1.6763011566515091,1.6380499893185219
1.613424237800226,1.656550553910947
1.5955486922818691,1.6575505844294565
1.6390500198370312,1.6488003173924985
1.6820513321329387,1.6454252143925292
1.6473002716147345,1.6416750999481187
1.625674611651967,1.6235495468001342
1.635174901577807,1.6066740318002868
1.634299874874111,1.6077990661336101
1.630049745170446,1.6057990050965911
1.6574255806146427,1.6062990203558458
1.673176061281167,1.6059240089114046
1.6428001342814416,1.6085490890224923
1.6027989135410627,1.6085490890224923
1.576548112430189,1.6014238715781122
1.6045489669484543,1.5914235663930174
1.6285496993926818,1.5854233832819604
1.6175493636890774,1.6015488753929257
1.5905485396893215,1.633549851985229
1.6059240089114046,1.6277996765037996
1.6634257637256997,1.6067990356151007
1.7085521408734399,1.6022988982818078
1.7204275032807397,1.6115491805780204
1.6466752525406658,1.6415500961333047
1.5492972808008056,1.6636757713553272
1.5320467543565173,1.6581756035035249
1.5572975249488816,1.6290497146519365
1.6014238715781122,1.6115491805780204
1.635924924466689,1.6202994476149783
1.633674855800043,1.6282996917630543
1.6214244819483017,1.6346748863185523
1.6299247413556321,1.6385500045777766
1.6586756187627796,1.6357999206518754
1.6500503555406356,1.6341748710592976
1.6441751762443924,1.6295497299111912
1.633549851985229,1.6361749320963164
1.6082990813928648,1.6475502792443617
1.6005488448744163,1.6553005157628102
1.6156743064668722,1.6484253059480574
1.647425275429548,1.633549851985229
1.667300881984924,1.6337998596148564
1.6294247260963775,1.643925168614765
1.611424176763207,1.6579255958738974
1.6563005462813196,1.6513003936887722
1.6634257637256997,1.6385500045777766
1.6235495468001342,1.6309247718741418
1.6420501113925596,1.645925229651784
1.645050202948088,1.6686759239478743
1.6385500045777766,1.6646758018738366
1.625674611651967,1.651800408948027
1.624924588763085,1.6581756035035249
1.613799249244667,1.673676076540422
1.6095491195410014,1.6885515305032504
1.61492428357799,1.704927030243843
1.6015488753929257,1.679551255836665
1.613424237800226,1.6515504013183995
1.6234245429853207,1.6524254280220954
1.6184243903927733,1.6544254890591144
1.6179243751335184,1.6564255500961331
1.6536754661702324,1.6670508743552965
1.6655508285775322,1.6658008362071597
1.6451752067629017,1.652550431836909
1.628049684133427,1.6461752372814111
1.6154242988372447,1.6435501571703237
1.6095491195410014,1.643925168614765
1.625674611651967,1.6310497756889553
1.6400500503555409,1.6266746421704763
1.6529254432813503,1.634424878688925
1.6669258705404828,1.6436751609851377
1.6765511642811366,1.6423001190221869
1.6441751762443924,1.6346748863185523
1.5865484176152838,1.6262996307260353
1.5784231696523943,1.6190494094668417
1.6049239783928952,1.6231745353556932
1.630049745170446,1.6285496993926818
1.6646758018738366,1.6374249702444532
1.6971767937253945,1.6531754509109775
1.6521754203924681,1.6678008972441787
1.6035489364299447,1.6600506607257304
1.6062990203558458,1.643925168614765
1.6294247260963775,1.63154979094821
1.6550505081331828,1.6302997528000733
1.6793012482070377,1.6354249092074344
1.6918016296884062,1.6576755882442702
1.6511753898739585,1.6651758171330913
1.6190494094668417,1.6488003173924985
1.6222995086519973,1.6415500961333047
1.6234245429853207,1.6398000427259134
1.6468002563554796,1.631674794763024
1.6703009735404524,1.6170493484298227
1.6829263588366346,1.6265496383556628
1.6730510574663533,1.651425397503586
1.6245495773186438,1.6631757560960723
1.5999238258003479,1.655800531022065
1.6274246650593585,1.6423001190221869
1.6337998596148564,1.636674947355571
1.634299874874111,1.6347998901333658
1.6440501724295786,1.633674855800043
1.6546754966887418,1.634299874874111
1.649425336466567,1.6436751609851377
1.6428001342814416,1.6601756645405439
1.6139242530594806,1.6625507370220038
1.6259246192815942,1.666800866725669
1.6535504623554185,1.6623007293923764
1.6505503707998903,1.6595506454664755
1.6096741233558154,1.665300820947905
1.6111741691335797,1.6570505691702018
1.6345498825037386,1.6465502487258523
1.6524254280220954,1.6670508743552965
1.6371749626148258,1.6873014923551135
1.642675130466628,1.679551255836665
1.6371749626148258,1.6580505996887114
1.6435501571703237,1.645925229651784
1.6638007751701407,1.6451752067629017
1.6516754051332134,1.6608006836146123
1.6154242988372447,1.6714260078737755
1.5981737723929563,1.6654258247627187
1.6084240852076785,1.6564255500961331
1.6404250617999818,1.6473002716147345
1.6354249092074344,1.6354249092074344
1.620924466689047,1.6464252449110386
1.635174901577807,1.669675954466384
1.6593006378368482,1.677926206244087
1.6471752677999205,1.673551072725608
1.6254246040223395,1.6670508743552965
1.618549394207587,1.6685509201330608
1.6244245735038303,1.6785512253181556
1.6312997833185827,1.6665508590960418
1.6486753135776848,1.6614257026886807
1.638299996948149,1.671301004058962
1.6215494857631152,1.6896765648365732
1.6039239478743859,1.701301919614246
1.6065490279854733,1.6898015686513872
1.6299247413556321,1.6670508743552965
1.651425397503586,1.6539254737998597
1.649425336466567,1.6503003631702629
1.6416750999481187,1.6573005767998292
1.6515504013183995,1.66717587817011
1.6385500045777766,1.6769261757255778
1.6384250007629628,1.6763011566515091
1.6326748252815333,1.673176061281167
1.6262996307260353,1.677176183355205
1.6179243751335184,1.6744260994293039
1.6227995239112523,1.656550553910947
1.6409250770592365,1.6424251228370008
1.6588006225775933,1.6519254127628407
1.6644257942442091,1.6588006225775933
1.671176000244148,1.6489253212073123
1.6573005767998292,1.6385500045777766
1.6246745811334575,1.6364249397259438
1.592298593096713,1.6444251838740198
1.6001738334299753,1.6475502792443617
1.6270496536149175,1.6476752830591754
1.6519254127628407,1.6414250923184912
1.647050263985107,1.6396750389110997
1.6301747489852596,1.6340498672444839
1.635924924466689,1.628424695577868
1.626049623096408,1.633674855800043
1.6214244819483017,1.6611756950590533
1.6172993560594502,1.6728010498367258
1.6309247718741418,1.653800469985046
1.6513003936887722,1.6413000885036775
1.6613006988738672,1.6365499435407576
1.6523004242072816,1.6294247260963775
1.6429251380962555,1.6255496078371532
1.6418001037629322,1.631674794763024
1.6444251838740198,1.6381749931333354
1.6613006988738672,1.6367999511703848
1.6665508590960418,1.6346748863185523
1.681551316873684,1.6250495925778985
1.7030519730216378,1.6104241462446975
1.7008019043549913,1.6080490737632376
1.6473002716147345,1.6127992187261575
1.63629993591113,1.6161743217261269
1.6381749931333354,1.627174657429731
1.6444251838740198,1.6361749320963164
1.6581756035035249,1.626424634540849
1.6809262977996156,1.6201744438001648
1.6823013397625661,1.6420501113925596
1.6465502487258523,1.657800592059084
1.6122992034669026,1.6327998290963468
1.61017413861507,1.6167993408001955
1.6262996307260353,1.6235495468001342
1.6423001190221869,1.6361749320963164
1.6599256569109164,1.6464252449110386
1.6801762749107334,1.6674258857997375
1.6901765800958282,1.6754261299478135
1.6949267250587483,1.6611756950590533
1.6501753593554491,1.6489253212073123
1.6214244819483017,1.6461752372814111
1.6371749626148258,1.6658008362071597
1.6500503555406356,1.6899265724662007
1.6553005157628102,1.6884265266884364
1.6704259773552659,1.66480080568865
1.6885515305032504,1.6436751609851377
1.6925516525772883,1.6451752067629017
1.6739260841700492,1.6581756035035249
1.6824263435773796,1.6669258705404828
1.7038019959105197,1.6781762138737144
1.6646758018738366,1.6891765495773186
1.671676015503403,1.691426618243965
1.6396750389110997,1.6939266945402387
1.6106741538743248,1.6794262520218513
1.6250495925778985,1.6675508896145512
1.6361749320963164,1.66480080568865
1.633549851985229,1.6726760460219123
1.6381749931333354,1.686301461836604
1.6520504165776544,1.6869264809106725
1.6746761070589313,1.666425855281228
1.6720510269478437,1.6675508896145512
1.6401750541703544,1.6746761070589313
1.6230495315408795,1.6719260231330302
1.6354249092074344,1.6571755729850153
1.667300881984924,1.6423001190221869
1.6828013550218206,1.6435501571703237
1.6650508133182775,1.6434251533555102
1.6511753898739585,1.633674855800043
1.6396750389110997,1.6265496383556628
1.6380499893185219,1.6244245735038303
1.6599256569109164,1.6174243598742637
1.6884265266884364,1.6132992339854122
1.681551316873684,1.6139242530594806
1.6561755424665061,1.616549333170568
1.64105008087405,1.6126742149113438
1.64105008087405,1.6064240241706595
1.6371749626148258,1.6136742454298534
1.6499253517258217,1.6453002105777155
1.658925626392407,1.6679259010589922
1.6553005157628102,1.6393000274666587
1.6506753746147038,1.6102991424298836
1.6536754661702324,1.614549272133549
1.6520504165776544,1.640300057985168
1.631674794763024,1.652550431836909
1.63154979094821,1.6431751457258827
1.6319248023926511,1.6420501113925596
1.6454252143925292,1.647050263985107
1.659800653096103,1.6546754966887418
1.657800592059084,1.6568005615405743
1.636674947355571,1.644675191503647
1.6309247718741418,1.6267996459852903
1.6371749626148258,1.6319248023926511
1.6441751762443924,1.6389250160222175
1.6421751152073734,1.6305497604297006
1.636674947355571,1.6176743675038912
1.6509253822443313,1.6275496688741722
1.6760511490218817,1.6519254127628407
1.7039269997253335,1.6636757713553272
1.7031769768364513,1.6571755729850153
1.665300820947905,1.6453002105777155
1.6224245124668113,1.6454252143925292
1.6146742759483628,1.653800469985046
1.62204950102237,1.6555505233924375
1.6281746879482406,1.6469252601702933
1.6196744285409101,1.6369249549851985
1.6231745353556932,1.6478002868739892
1.6321748100222786,1.658925626392407
1.6616757103183082,1.6423001190221869
1.7488033692434461,1.6299247413556321
1.7558035828730125,1.6580505996887114
1.6309247718741418,1.6540504776146734
1.5720479750968963,1.639925046540727
1.5886734824671163,1.632424817651906
1.6154242988372447,1.636674947355571
1.6334248481704154,1.6369249549851985
1.6464252449110386,1.6286747032074953
1.66480080568865,1.6287997070223093
1.6816763206884975,1.630049745170446
1.6615507065034945,1.637549974059267
1.6455502182073427,1.6415500961333047
1.6332998443556017,1.6320498062074649
1.632299813837092,1.6230495315408795
1.6408000732444226,1.6262996307260353
1.6505503707998903,1.633549851985229
1.6644257942442091,1.6306747642445143
1.6670508743552965,1.6194244209112827
1.6705509811700798,1.611799188207648
1.6849264198736535,1.6247995849482713
1.6734260689107945,1.61492428357799
1.6471752677999205,1.5949236732078005
1.625674611651967,1.5930486159855952
1.634299874874111,1.6065490279854733
1.632424817651906,1.6179243751335184
1.6354249092074344,1.6202994476149783
1.647425275429548,1.6230495315408795
1.6710509964293345,1.6282996917630543
1.6873014923551135,1.635924924466689
1.6753011261329998,1.6356749168370617
1.6408000732444226,1.6282996917630543
1.6279246803186131,1.622924527726066
1.6371749626148258,1.6214244819483017
1.6455502182073427,1.632424817651906
1.6523004242072816,1.6436751609851377
1.6678008972441787,1.644675191503647
1.671301004058962,1.6414250923184912
1.6710509964293345,1.644675191503647
1.6479252906888027,1.656925565355388
1.627674672688986,1.6571755729850153
1.631674794763024,1.6508003784295175
1.6618007141331217,1.6448001953184606
1.6544254890591144,1.6453002105777155
1.6231745353556932,1.6503003631702629
1.6215494857631152,1.651425397503586
1.6391750236518448,1.6568005615405743
1.6564255500961331,1.6546754966887418
1.651800408948027,1.6506753746147038
1.662800744651631,1.647425275429548
1.6835513779107028,1.647425275429548
1.6820513321329387,1.6611756950590533
1.6458002258369702,1.653800469985046
1.6199244361705374,1.6405500656147955
1.6172993560594502,1.6384250007629628
1.6352999053926207,1.6341748710592976
1.6481752983184301,1.645050202948088
1.6364249397259438,1.6575505844294565
1.6478002868739892,1.6533004547257912
1.6543004852443006,1.6435501571703237
1.6156743064668722,1.6398000427259134
1.6004238410596028,1.6370499588000123
1.6116741843928344,1.6454252143925292
1.625299600207526,1.6483003021332439
1.63629993591113,1.6420501113925596
1.6611756950590533,1.6408000732444226
1.669675954466384,1.6505503707998903
1.6498003479110082,1.6604256721701711
1.6394250312814722,1.6528004394665363
1.6513003936887722,1.6385500045777766
1.6659258400219734,1.634424878688925
1.6644257942442091,1.647050263985107
1.6374249702444532,1.6601756645405439
1.62917471846675,1.6493003326517535
1.664925809503464,1.6334248481704154
1.6980518204290902,1.639550035096286
1.6864264656514176,1.6646758018738366
1.6409250770592365,1.6613006988738672
1.637924985503708,1.6388000122074038
1.6636757713553272,1.636674947355571
1.6244245735038303,1.6528004394665363
1.5901735282448806,1.671301004058962
1.5957986999114964,1.6733010650959808
1.612174199652089,1.6681759086886196
1.6349248939481797,1.6689259315775018
1.6594256416516617,1.6721760307626576
1.6640507827997681,1.6741760917996766
1.6469252601702933,1.6686759239478743
1.6356749168370617,1.6590506302072208
1.6347998901333658,1.6590506302072208
1.6451752067629017,1.6610506912442398
1.6740510879848627,1.6553005157628102
1.719927488021485,1.6511753898739585
1.686301461836604,1.6669258705404828
1.6201744438001648,1.6858014465773492
1.5957986999114964,1.6848014160588396
1.601173863948485,1.6665508590960418
1.6215494857631152,1.6548005005035553
1.6376749778740807,1.6571755729850153
1.6595506454664755,1.6661758476516009
1.6789262367625966,1.6349248939481797
1.6681759086886196,1.6204244514297923
1.6314247871333964,1.640675069429609
1.6281746879482406,1.6686759239478743
1.6515504013183995,1.6776761986144597
1.6848014160588396,1.6741760917996766
1.6599256569109164,1.675676137577441
1.605048982207709,1.6741760917996766
1.609049104281747,1.6686759239478743
1.6345498825037386,1.6689259315775018
1.6493003326517535,1.6768011719107638
1.6496753440961944,1.6746761070589313
1.6610506912442398,1.6619257179479354
1.6844264046143986,1.6549255043183693
1.6829263588366346,1.6586756187627796
1.6428001342814416,1.6763011566515091
1.626424634540849,1.6769261757255778
1.6369249549851985,1.6686759239478743
1.6595506454664755,1.660925687429426
1.6624257332071901,1.6624257332071901
1.6503003631702629,1.667675893429365
1.6595506454664755,1.6661758476516009
1.6725510422070986,1.673676076540422
1.6408000732444226,1.6856764427625355
1.6394250312814722,1.6661758476516009
1.6504253669850764,1.651050386059145
1.6520504165776544,1.6519254127628407
1.6486753135776848,1.6640507827997681
1.634299874874111,1.6704259773552659
1.6394250312814722,1.6625507370220038
1.6679259010589922,1.6491753288369395
1.686301461836604,1.657800592059084
1.6608006836146123,1.6781762138737144
1.660550675984985,1.6825513473921934
1.6896765648365732,1.6720510269478437
1.6778012024292734,1.6613006988738672
1.6207994628742333,1.6556755272072514
1.597173741874447,1.6521754203924681
1.631174779503769,1.6579255958738974
1.6596756492812892,1.6709259926145208
1.6543004852443006,1.673176061281167
1.6423001190221869,1.6669258705404828
1.6480502945036166,1.6493003326517535
1.6478002868739892,1.6372999664296397
1.643925168614765,1.6479252906888027
1.6405500656147955,1.6640507827997681
1.6428001342814416,1.643925168614765
1.6625507370220038,1.6279246803186131
1.6769261757255778,1.6274246650593585
1.668050904873806,1.6281746879482406
1.666425855281228,1.627174657429731
1.6809262977996156,1.6309247718741418
1.6848014160588396,1.639925046540727
1.6623007293923764,1.6468002563554796
1.625674611651967,1.6581756035035249
1.6286747032074953,1.6674258857997375
1.6370499588000123,1.6679259010589922
1.6329248329111608,1.6541754814294871
1.6327998290963468,1.6332998443556017
1.630424756614887,1.6319248023926511
1.6556755272072514,1.651050386059145
1.673676076540422,1.6596756492812892
1.6875514999847407,1.6586756187627796
1.6886765343180639,1.6619257179479354
1.6548005005035553,1.673551072725608
1.6354249092074344,1.6805512863551746
1.6332998443556017,1.6740510879848627
1.6418001037629322,1.6685509201330608
1.6408000732444226,1.6661758476516009
1.6489253212073123,1.6728010498367258
1.6640507827997681,1.6869264809106725
1.6721760307626576,1.6748011108737448
1.649425336466567,1.6476752830591754
1.6464252449110386,1.6483003021332439
1.6595506454664755,1.6571755729850153
1.6528004394665363,1.6650508133182775
1.6367999511703848,1.670800988799707
1.633674855800043,1.6665508590960418
1.6559255348368787,1.6593006378368482
1.6728010498367258,1.6606756797997986
1.649425336466567,1.6594256416516617
1.6376749778740807,1.6471752677999205
1.6476752830591754,1.6409250770592365
1.6391750236518448,1.6480502945036166
1.6181743827631458,1.6506753746147038
1.6231745353556932,1.6425501266518143
1.625299600207526,1.6391750236518448
1.5961737113559373,1.649050325022126
1.6051739860225227,1.6485503097628713
1.626424634540849,1.6449251991332745
1.6274246650593585,1.6461752372814111
1.623299539170507,1.6505503707998903
1.6204244514297923,1.6595506454664755
1.6179243751335184,1.6698009582811977
1.627299661244545,1.6759261452070682
1.6266746421704763,1.6483003021332439
1.6234245429853207,1.6239245582445754
1.6301747489852596,1.6435501571703237
1.6401750541703544,1.66717587817011
1.6390500198370312,1.6701759697256386
1.6454252143925292,1.6551755119479965
1.6528004394665363,1.6451752067629017
1.6728010498367258,1.6330498367259743
1.6758011413922544,1.6222995086519973
1.645050202948088,1.6261746269112216
1.6191744132816552,1.6244245735038303
1.6505503707998903,1.6156743064668722
1.679551255836665,1.6160493179113133
1.6237995544297616,1.623299539170507
1.5972987456892607,1.6448001953184606
1.6247995849482713,1.6460502334665976
1.636674947355571,1.6255496078371532
1.6177993713187049,1.6027989135410627
1.6132992339854122,1.6009238563188575
1.6261746269112216,1.6297997375408186
1.6499253517258217,1.670800988799707
1.6666758629108556,1.6820513321329387
1.6616757103183082,1.6544254890591144
1.6144242683187355,1.6266746421704763
1.595173680837428,1.6166743369853815
1.5929236121707817,1.6245495773186438
1.6044239631336406,1.6429251380962555
1.6151742912076175,1.6575505844294565
1.6269246498001038,1.6603006683553576
1.635549913022248,1.6523004242072816
1.6509253822443313,1.6309247718741418
1.6661758476516009,1.6210494705038605
1.662800744651631,1.635174901577807
1.645050202948088,1.6615507065034945
1.6347998901333658,1.666800866725669
1.640675069429609,1.652550431836909
1.6614257026886807,1.6409250770592365
1.6611756950590533,1.637549974059267
1.6493003326517535,1.6372999664296397
1.6495503402813807,1.6445501876888333
1.6480502945036166,1.6503003631702629
1.6654258247627187,1.6553005157628102
1.6706759849848933,1.658550614947966
1.6416750999481187,1.6521754203924681
1.6377999816888944,1.6374249702444532
1.645925229651784,1.6334248481704154
1.6553005157628102,1.635924924466689
1.633174840540788,1.6371749626148258
1.6309247718741418,1.6325498214667196
1.6488003173924985,1.6388000122074038
1.6408000732444226,1.651050386059145
1.631674794763024,1.6433001495406965
1.6391750236518448,1.6365499435407576
1.633174840540788,1.6330498367259743
1.6436751609851377,1.6370499588000123
1.6509253822443313,1.6384250007629628
1.6651758171330913,1.6376749778740807
1.667675893429365,1.6367999511703848
1.6506753746147038,1.6239245582445754
1.6501753593554491,1.6116741843928344
1.6740510879848627,1.6036739402447586
1.665300820947905,1.6024239020966218
1.6469252601702933,1.6072990508743554
1.6471752677999205,1.6155493026520584
1.6583006073183386,1.6157993102816859
1.684301400799585,1.6042989593188268
1.7045520187994019,1.5934236274300364
1.6500503555406356,1.596798730430006
1.613424237800226,1.6071740470595417
1.6416750999481187,1.6064240241706595
1.6785512253181556,1.5974237495040742
1.6528004394665363,1.587298440504166
1.6246745811334575,1.5891734977263712
1.6166743369853815,1.6044239631336406
1.6182993865779596,1.611799188207648
1.6267996459852903,1.6146742759483628
1.629674733726005,1.6269246498001038
1.6330498367259743,1.6493003326517535
1.6529254432813503,1.6506753746147038
1.666425855281228,1.6282996917630543
1.6524254280220954,1.6192994170964692
1.6405500656147955,1.6215494857631152
1.6486753135776848,1.6275496688741722
1.6659258400219734,1.6306747642445143
1.6610506912442398,1.639925046540727
1.6571755729850153,1.6463002410962249
1.6481752983184301,1.6438001647999512
1.6458002258369702,1.6367999511703848
1.6561755424665061,1.6281746879482406
1.6773011871700187,1.6239245582445754
1.6946767174291208,1.6294247260963775
1.6634257637256997,1.645925229651784
1.6400500503555409,1.6568005615405743
1.6226745200964385,1.645925229651784
1.62917471846675,1.6225495162816248
1.6566755577257606,1.6082990813928648
1.6436751609851377,1.6136742454298534
1.6241745658742028,1.630049745170446
1.6409250770592365,1.644675191503647
1.6681759086886196,1.6508003784295175
1.6803012787255471,1.6485503097628713
1.6398000427259134,1.656925565355388
1.6244245735038303,1.6698009582811977
1.6161743217261269,1.6480502945036166
1.6160493179113133,1.6339248634296701
1.626424634540849,1.6352999053926207
1.6370499588000123,1.6523004242072816
1.6504253669850764,1.6615507065034945
1.6583006073183386,1.658925626392407
1.655800531022065,1.6523004242072816
1.6575505844294565,1.6440501724295786
1.6638007751701407,1.6367999511703848
